; Refractive index of magnesium fluoride
; at room temperature for the ordinary ray
;
; Data for n from:
; [1] M. J. Dodge, "Refractive properties of magnesium fluoride",
; Appl. Opt. 23, 1980-1985 (1984)
; [2] P. Laporte, J. L. Subtil, M. Courbon, and M. Bon,
; "Vacuum-ultraviolet refractive index of LiF and MgF2 in the
; temperature range 80K - 300K", J. Opt. Soc. Am. 73, 1062-1068 (1983)
;
; Data for k from:
; Calculated from digitized transmittance spectra for MgF2 published online
; by Korth Kristalle GmbH, Goettingen; http://www.korth.de,
; and the published refractive index spectra.
; 
; lambda/um   n    k
0.1198  1.65100  6.50398e-07
0.1215  1.62750  6.19227e-07
0.1251  1.59150  5.75217e-07
0.1275  1.57300  5.40987e-07
0.1301  1.55650  5.10533e-07
0.1350  1.52850  4.70426e-07
0.1400  1.50950  4.04207e-07
0.1450  1.49450  3.18836e-07
0.1500  1.48000  2.13938e-07
0.1550  1.47150  1.76058e-07
0.1600  1.46100  1.51285e-07
0.1650  1.45350  1.24107e-07
0.1700  1.44750  9.60297e-08
0.1750  1.44350  7.74529e-08
0.1800  1.43900  6.66454e-08
0.1850  1.43425  6.27855e-08
0.1900  1.43050  7.20507e-08
0.1950  1.42600  4.55811e-08
0.2000  1.42309  2.23431e-08
0.2050  1.42018  3.8281e-09
0.2100  1.41754  6.1673e-09
0.2150  1.41512  1.37854e-09
0.2200  1.41291  0
0.2250  1.41088  0
0.2300  1.40901  5.08108e-09
0.2350  1.40727  0
0.2400  1.40567  0
0.2450  1.40418  0
0.2500  1.40280  0
0.2550  1.40151  0
0.2600  1.40030  0
0.2650  1.39918  0
0.2700  1.39812  0
0.2750  1.39713  0
0.2800  1.39620  0
0.2850  1.39532  0
0.2900  1.39450  0
0.2950  1.39372  0
0.3000  1.39298  0
0.3050  1.39228  0
0.3100  1.39162  0
0.3150  1.39099  0
0.3200  1.39040  0
0.3250  1.38983  0
0.3300  1.38930  0
0.3350  1.38878  0
0.3400  1.38830  0
0.3450  1.38783  0
0.3500  1.38739  0
0.3550  1.38696  0
0.3600  1.38656  0
0.3650  1.38617  0
0.3700  1.38580  0
0.3750  1.38544  0
0.3800  1.38510  0
0.3850  1.38477  0
0.3900  1.38446  0
0.3950  1.38416  0
0.4000  1.38386  0
0.4050  1.38359  0
0.4100  1.38332  0
0.4150  1.38306  0
0.4200  1.38281  0
0.4250  1.38257  0
0.4300  1.38233  0
0.4350  1.38211  0
0.4400  1.38189  0
0.4450  1.38168  0
0.4500  1.38148  0
0.4550  1.38129  0
0.4600  1.38110  0
0.4650  1.38091  0
0.4700  1.38074  0
0.4750  1.38056  0
0.4800  1.38040  0
0.4850  1.38024  0
0.4900  1.38008  0
0.4950  1.37993  0
0.5000  1.37978  0
0.5050  1.37963  0
0.5100  1.37949  0
0.5150  1.37936  0
0.5200  1.37923  0
0.5250  1.37910  0
0.5300  1.37897  0
0.5350  1.37885  0
0.5400  1.37873  0
0.5450  1.37862  0
0.5500  1.37851  0
0.5550  1.37840  0
0.5600  1.37829  0
0.5650  1.37819  0
0.5700  1.37808  0
0.5750  1.37798  0
0.5800  1.37789  0
0.5850  1.37779  0
0.5900  1.37770  0
0.5950  1.37761  0
0.6000  1.37752  0
0.6050  1.37743  0
0.6100  1.37735  0
0.6150  1.37727  0
0.6200  1.37718  0
0.6250  1.37711  0
0.6300  1.37703  0
0.6350  1.37695  0
0.6400  1.37688  0
0.6450  1.37680  0
0.6500  1.37673  0
0.6550  1.37666  0
0.6600  1.37659  0
0.6650  1.37652  0
0.6700  1.37646  0
0.6750  1.37639  0
0.6800  1.37633  0
0.6850  1.37626  0
0.6900  1.37620  0
0.6950  1.37614  0
0.7000  1.37608  0
0.7200  1.37585  0
0.7400  1.37563  0
0.7600  1.37543  0
0.7800  1.37524  0
0.8000  1.37506  0
0.8200  1.37488  0
0.8400  1.37472  0
0.8600  1.37456  0
0.8800  1.37440  0
0.9000  1.37426  0
0.9200  1.37411  0
0.9400  1.37398  0
0.9600  1.37384  0
0.9800  1.37371  0
1.0000  1.37358  0
1.0200  1.37346  0
1.0400  1.37334  0
1.0600  1.37322  0
1.0800  1.37310  0
1.1000  1.37298  0
1.1200  1.37287  0
1.1400  1.37275  0
1.1600  1.37264  0
1.1800  1.37253  0
1.2000  1.37242  0
1.2200  1.37231  0
1.2400  1.37220  0
1.2600  1.37209  0
1.2800  1.37198  0
1.3000  1.37188  0
1.3200  1.37177  0
1.3400  1.37166  0
1.3600  1.37155  0
1.3800  1.37145  0
1.4000  1.37134  0
1.4200  1.37123  0
1.4400  1.37112  0
1.4600  1.37101  0
1.4800  1.37090  0
1.5000  1.37079  0
1.5200  1.37068  0
1.5400  1.37057  0
1.5600  1.37046  0
1.5800  1.37035  0
1.6000  1.37024  0
1.6200  1.37013  0
1.6400  1.37001  0
1.6600  1.36990  0
1.6800  1.36979  0
1.7000  1.36967  0
1.7200  1.36955  0
1.7400  1.36944  0
1.7600  1.36932  0
1.7800  1.36920  0
1.8000  1.36908  0
1.8200  1.36896  0
1.8400  1.36884  0
1.8600  1.36872  0
1.8800  1.36859  0
1.9000  1.36847  0
1.9200  1.36834  0
1.9400  1.36822  0
1.9600  1.36809  0
1.9800  1.36796  0
2.0000  1.36784  0
2.0200  1.36771  0
2.0400  1.36757  0
2.0600  1.36744  0
2.0800  1.36731  0
2.1000  1.36718  0
2.1200  1.36704  0
2.1400  1.36690  0
2.1600  1.36677  0
2.1800  1.36663  0
2.2000  1.36649  0
2.2200  1.36635  0
2.2400  1.36621  0
2.2600  1.36606  0
2.2800  1.36592  0
2.3000  1.36578  0
2.3200  1.36563  0
2.3400  1.36548  0
2.3600  1.36533  0
2.3800  1.36518  0
2.4000  1.36503  0
2.4200  1.36488  0
2.4400  1.36473  0
2.4600  1.36457  0
2.4800  1.36442  0
2.5000  1.36426  0
2.5200  1.36410  0
2.5400  1.36395  0
2.5600  1.36378  0
2.5800  1.36362  0
2.6000  1.36346  0
2.6200  1.36330  0
2.6400  1.36313  0
2.6600  1.36297  0
2.6800  1.36280  0
2.7000  1.36263  0
2.7200  1.36246  0
2.7400  1.36229  0
2.7600  1.36212  0
2.7800  1.36194  0
2.8000  1.36177  0
2.8200  1.36159  0
2.8400  1.36141  0
2.8600  1.36123  0
2.8800  1.36105  0
2.9000  1.36087  0
2.9200  1.36069  0
2.9400  1.36051  0
2.9600  1.36032  0
2.9800  1.36013  0
3.0000  1.35995  0
3.0200  1.35976  0
3.0400  1.35957  0
3.0600  1.35937  0
3.0800  1.35918  0
3.1000  1.35899  0
3.1200  1.35879  0
3.1400  1.35859  0
3.1600  1.35840  0
3.1800  1.35820  0
3.2000  1.35800  0
3.2200  1.35779  0
3.2400  1.35759  0
3.2600  1.35738  0
3.2800  1.35718  0
3.3000  1.35697  0
3.3200  1.35676  0
3.3400  1.35655  0
3.3600  1.35634  0
3.3800  1.35613  0
3.4000  1.35591  0
3.4200  1.35570  0
3.4400  1.35548  0
3.4600  1.35526  0
3.4800  1.35504  0
3.5000  1.35482  0
3.5200  1.35460  0
3.5400  1.35437  0
3.5600  1.35415  0
3.5800  1.35392  0
3.6000  1.35369  0
3.6200  1.35346  0
3.6400  1.35323  0
3.6600  1.35300  0
3.6800  1.35276  0
3.7000  1.35253  0
3.7200  1.35229  0
3.7400  1.35205  0
3.7600  1.35182  0
3.7800  1.35157  0
3.8000  1.35133  0
3.8200  1.35109  0
3.8400  1.35084  0
3.8600  1.35060  0
3.8800  1.35035  0
3.9000  1.35010  0
3.9200  1.34985  0
3.9400  1.34959  0
3.9600  1.34934  0
3.9800  1.34909  0
4.0000  1.34883  0
4.0200  1.34857  0
4.0400  1.34831  0
4.0600  1.34805  0
4.0800  1.34779  0
4.1000  1.34752  0
4.1200  1.34726  0
4.1400  1.34699  0
4.1600  1.34672  0
4.1800  1.34645  0
4.2000  1.34618  0
4.2200  1.34591  0
4.2400  1.34563  0
4.2600  1.34536  0
4.2800  1.34508  0
4.3000  1.34480  0
4.3200  1.34452  0
4.3400  1.34424  0
4.3600  1.34395  0
4.3800  1.34367  0
4.4000  1.34338  0
4.4200  1.34309  0
4.4400  1.34280  0
4.4600  1.34251  0
4.4800  1.34222  0
4.5000  1.34192  0
4.5200  1.34163  0
4.5400  1.34133  0
4.5600  1.34103  0
4.5800  1.34073  0
4.6000  1.34043  0
4.6200  1.34012  0
4.6400  1.33982  0
4.6600  1.33951  0
4.6800  1.33920  0
4.7000  1.33889  0
4.7200  1.33858  0
4.7400  1.33827  0
4.7600  1.33795  0
4.7800  1.33763  0
4.8000  1.33732  0
4.8200  1.33700  0
4.8400  1.33667  0
4.8600  1.33635  0
4.8800  1.33603  0
4.9000  1.33570  0
4.9200  1.33537  0
4.9400  1.33504  0
4.9600  1.33471  0
4.9800  1.33438  0
5.0000  1.33404  0
