; Refractive index of magnesium fluoride
; at room temperature for the extraordinary ray
;
; Data for n from:
; [1] M. J. Dodge, "Refractive properties of magnesium fluoride",
; Appl. Opt. 23, 1980-1985 (1984)
; [2] P. Laporte, J. L. Subtil, M. Courbon, and M. Bon,
; "Vacuum-ultraviolet refractive index of LiF and MgF2 in the
; temperature range 80K - 300K", J. Opt. Soc. Am. 73, 1062-1068 (1983)
;
; Data for k from:
; Calculated from digitized transmittance spectra for MgF2 published online
; by Korth Kristalle GmbH, Goettingen; http://www.korth.de,
; and the published refractive index spectra.
; 
; lambda/um   n    k
0.1198  1.65200  6.47066e-07
0.1215  1.63200  6.12607e-07
0.1251  1.60050  5.67597e-07
0.1275  1.58350  5.32731e-07
0.1301  1.56800  5.01253e-07
0.1350  1.54150  4.60815e-07
0.1400  1.52300  3.9436e-07
0.1450  1.50850  3.08843e-07
0.1500  1.49450  2.0448e-07
0.1550  1.48550  1.66561e-07
0.1600  1.47500  1.41671e-07
0.1650  1.46750  1.14373e-07
0.1700  1.46150  8.61618e-08
0.1750  1.45750  6.74104e-08
0.1800  1.45300  5.68357e-08
0.1850  1.44795  5.59961e-08
0.1900  1.4440   6.17595e-08
0.1950  1.43950  3.51271e-08
0.2000  1.43657  1.18467e-08
0.2050  1.43358  0
0.2100  1.43085  0
0.2150  1.42836  0
0.2200  1.42608  0
0.2250  1.42398  0
0.2300  1.42204  0
0.2350  1.42025  0
0.2400  1.41860  0
0.2450  1.41705  0
0.2500  1.41562  0
0.2550  1.41428  0
0.2600  1.41303  0
0.2650  1.41186  0
0.2700  1.41077  0
0.2750  1.40974  0
0.2800  1.40877  0
0.2850  1.40786  0
0.2900  1.40700  0
0.2950  1.40619  0
0.3000  1.40543  0
0.3050  1.40470  0
0.3100  1.40402  0
0.3150  1.40336  0
0.3200  1.40275  0
0.3250  1.40216  0
0.3300  1.40160  0
0.3350  1.40107  0
0.3400  1.40056  0
0.3450  1.40007  0
0.3500  1.39961  0
0.3550  1.39917  0
0.3600  1.39875  0
0.3650  1.39834  0
0.3700  1.39796  0
0.3750  1.39759  0
0.3800  1.39723  0
0.3850  1.39689  0
0.3900  1.39656  0
0.3950  1.39625  0
0.4000  1.39594  0
0.4050  1.39565  0
0.4100  1.39537  0
0.4150  1.39510  0
0.4200  1.39484  0
0.4250  1.39459  0
0.4300  1.39435  0
0.4350  1.39411  0
0.4400  1.39389  0
0.4450  1.39367  0
0.4500  1.39346  0
0.4550  1.39325  0
0.4600  1.39306  0
0.4650  1.39287  0
0.4700  1.39268  0
0.4750  1.39250  0
0.4800  1.39233  0
0.4850  1.39216  0
0.4900  1.39199  0
0.4950  1.39183  0
0.5000  1.39168  0
0.5050  1.39153  0
0.5100  1.39139  0
0.5150  1.39124  0
0.5200  1.39111  0
0.5250  1.39097  0
0.5300  1.39084  0
0.5350  1.39071  0
0.5400  1.39059  0
0.5450  1.39047  0
0.5500  1.39035  0
0.5550  1.39024  0
0.5600  1.39013  0
0.5650  1.39002  0
0.5700  1.38991  0
0.5750  1.38981  0
0.5800  1.38971  0
0.5850  1.38961  0
0.5900  1.38951  0
0.5950  1.38942  0
0.6000  1.38932  0
0.6050  1.38923  0
0.6100  1.38914  0
0.6150  1.38906  0
0.6200  1.38897  0
0.6250  1.38889  0
0.6300  1.38881  0
0.6350  1.38873  0
0.6400  1.38865  0
0.6450  1.38857  0
0.6500  1.38850  0
0.6550  1.38842  0
0.6600  1.38835  0
0.6650  1.38828  0
0.6700  1.38821  0
0.6750  1.38814  0
0.6800  1.38807  0
0.6850  1.38801  0
0.6900  1.38794  0
0.6950  1.38788  0
0.7000  1.38782  0
0.7200  1.38758  0
0.7400  1.38735  0
0.7600  1.38714  0
0.7800  1.38693  0
0.8000  1.38674  0
0.8200  1.38656  0
0.8400  1.38639  0
0.8600  1.38622  0
0.8800  1.38606  0
0.9000  1.38590  0
0.9200  1.38575  0
0.9400  1.38561  0
0.9600  1.38546  0
0.9800  1.38533  0
1.0000  1.38519  0
1.0200  1.38506  0
1.0400  1.38493  0
1.0600  1.38480  0
1.0800  1.38468  0
1.1000  1.38456  0
1.1200  1.38444  0
1.1400  1.38432  0
1.1600  1.38420  0
1.1800  1.38408  0
1.2000  1.38396  0
1.2200  1.38384  0
1.2400  1.38373  0
1.2600  1.38361  0
1.2800  1.38350  0
1.3000  1.38338  0
1.3200  1.38327  0
1.3400  1.38315  0
1.3600  1.38304  0
1.3800  1.38293  0
1.4000  1.38281  0
1.4200  1.38270  0
1.4400  1.38258  0
1.4600  1.38246  0
1.4800  1.38235  0
1.5000  1.38223  0
1.5200  1.38211  0
1.5400  1.38200  0
1.5600  1.38188  0
1.5800  1.38176  0
1.6000  1.38164  0
1.6200  1.38152  0
1.6400  1.38140  0
1.6600  1.38128  0
1.6800  1.38116  0
1.7000  1.38103  0
1.7200  1.38091  0
1.7400  1.38078  0
1.7600  1.38066  0
1.7800  1.38053  0
1.8000  1.38040  0
1.8200  1.38028  0
1.8400  1.38015  0
1.8600  1.38002  0
1.8800  1.37988  0
1.9000  1.37975  0
1.9200  1.37962  0
1.9400  1.37948  0
1.9600  1.37935  0
1.9800  1.37921  0
2.0000  1.37907  0
2.0200  1.37893  0
2.0400  1.37879  0
2.0600  1.37865  0
2.0800  1.37851  0
2.1000  1.37837  0
2.1200  1.37822  0
2.1400  1.37808  0
2.1600  1.37793  0
2.1800  1.37778  0
2.2000  1.37763  0
2.2200  1.37748  0
2.2400  1.37733  0
2.2600  1.37718  0
2.2800  1.37703  0
2.3000  1.37687  0
2.3200  1.37672  0
2.3400  1.37656  0
2.3600  1.37640  0
2.3800  1.37624  0
2.4000  1.37608  0
2.4200  1.37592  0
2.4400  1.37575  0
2.4600  1.37559  0
2.4800  1.37542  0
2.5000  1.37525  0
2.5200  1.37508  0
2.5400  1.37491  0
2.5600  1.37474  0
2.5800  1.37457  0
2.6000  1.37440  0
2.6200  1.37422  0
2.6400  1.37404  0
2.6600  1.37386  0
2.6800  1.37369  0
2.7000  1.37350  0
2.7200  1.37332  0
2.7400  1.37314  0
2.7600  1.37295  0
2.7800  1.37277  0
2.8000  1.37258  0
2.8200  1.37239  0
2.8400  1.37220  0
2.8600  1.37201  0
2.8800  1.37182  0
2.9000  1.37162  0
2.9200  1.37143  0
2.9400  1.37123  0
2.9600  1.37103  0
2.9800  1.37083  0
3.0000  1.37063  0
3.0200  1.37043  0
3.0400  1.37023  0
3.0600  1.37002  0
3.0800  1.36981  0
3.1000  1.36961  0
3.1200  1.36940  0
3.1400  1.36919  0
3.1600  1.36897  0
3.1800  1.36876  0
3.2000  1.36854  0
3.2200  1.36833  0
3.2400  1.36811  0
3.2600  1.36789  0
3.2800  1.36767  0
3.3000  1.36745  0
3.3200  1.36722  0
3.3400  1.36700  0
3.3600  1.36677  0
3.3800  1.36654  0
3.4000  1.36631  0
3.4200  1.36608  0
3.4400  1.36585  0
3.4600  1.36562  0
3.4800  1.36538  0
3.5000  1.36514  0
3.5200  1.36491  0
3.5400  1.36467  0
3.5600  1.36442  0
3.5800  1.36418  0
3.6000  1.36394  0
3.6200  1.36369  0
3.6400  1.36344  0
3.6600  1.36319  0
3.6800  1.36294  0
3.7000  1.36269  0
3.7200  1.36244  0
3.7400  1.36218  0
3.7600  1.36193  0
3.7800  1.36167  0
3.8000  1.36141  0
3.8200  1.36115  0
3.8400  1.36089  0
3.8600  1.36062  0
3.8800  1.36036  0
3.9000  1.36009  0
3.9200  1.35982  0
3.9400  1.35955  0
3.9600  1.35928  0
3.9800  1.35900  0
4.0000  1.35873  0
4.0200  1.35845  0
4.0400  1.35817  0
4.0600  1.35789  0
4.0800  1.35761  0
4.1000  1.35733  0
4.1200  1.35704  0
4.1400  1.35676  0
4.1600  1.35647  0
4.1800  1.35618  0
4.2000  1.35589  0
4.2200  1.35560  0
4.2400  1.35530  0
4.2600  1.35501  0
4.2800  1.35471  0
4.3000  1.35441  0
4.3200  1.35411  0
4.3400  1.35381  0
4.3600  1.35350  0
4.3800  1.35320  0
4.4000  1.35289  0
4.4200  1.35258  0
4.4400  1.35227  0
4.4600  1.35196  0
4.4800  1.35164  0
4.5000  1.35133  0
4.5200  1.35101  0
4.5400  1.35069  0
4.5600  1.35037  0
4.5800  1.35005  0
4.6000  1.34972  0
4.6200  1.34940  0
4.6400  1.34907  0
4.6600  1.34874  0
4.6800  1.34841  0
4.7000  1.34808  0
4.7200  1.34774  0
4.7400  1.34741  0
4.7600  1.34707  0
4.7800  1.34673  0
4.8000  1.34639  0
4.8200  1.34605  0
4.8400  1.34570  0
4.8600  1.34536  0
4.8800  1.34501  0
4.9000  1.34466  0
4.9200  1.34431  0
4.9400  1.34395  0
4.9600  1.34360  0
4.9800  1.34324  0
5.0000  1.34288  0
