; From SOPRA S.A. http://www.sopra-sa.com/indices.htm
; Filename    Symbol               Range (nm)     Description
; GAAS249T    GaAs                275      999    Gallium Arsenide (Temp: 249 C)
; lambda/um       n         k
0.27583  3.739600  3.130400
0.27675  3.766000  3.081800
0.27768  3.782800  3.042000
0.27862  3.809000  3.002800
0.27956  3.827200  2.961600
0.28051  3.852300  2.915200
0.28146  3.863000  2.871400
0.28243  3.873300  2.829300
0.28339  3.873900  2.784600
0.28437  3.884300  2.732800
0.28535  3.888100  2.691500
0.28634  3.892100  2.644800
0.28734  3.896500  2.601900
0.28834  3.894300  2.564900
0.28935  3.886500  2.524900
0.29036  3.883200  2.483600
0.29139  3.877100  2.450700
0.29242  3.864100  2.419700
0.29346  3.852000  2.385800
0.29450  3.846500  2.353400
0.29555  3.836600  2.325900
0.29662  3.826400  2.297500
0.29768  3.819400  2.267400
0.29876  3.806300  2.240000
0.29984  3.794000  2.213200
0.30093  3.787400  2.186700
0.30203  3.775300  2.164900
0.30314  3.761900  2.142400
0.30426  3.750700  2.124000
0.30538  3.743100  2.110400
0.30651  3.732200  2.099500
0.30766  3.722600  2.089700
0.30880  3.710100  2.078600
0.30996  3.700000  2.069100
0.31113  3.689000  2.057900
0.31231  3.679800  2.046700
0.31349  3.669700  2.035100
0.31468  3.661100  2.022800
0.31589  3.654800  2.017000
0.31710  3.646700  2.012000
0.31832  3.639000  2.007400
0.31955  3.633100  2.002200
0.32079  3.625900  1.995800
0.32204  3.619900  1.988800
0.32330  3.609200  1.982300
0.32457  3.603100  1.978100
0.32585  3.592500  1.973400
0.32714  3.587500  1.968000
0.32844  3.578500  1.969800
0.32975  3.570900  1.972300
0.33107  3.568700  1.970600
0.33240  3.570500  1.971700
0.33374  3.572400  1.972500
0.33510  3.573700  1.972700
0.33646  3.574000  1.971400
0.33783  3.576400  1.968300
0.33922  3.573100  1.963800
0.34062  3.573700  1.958600
0.34203  3.568700  1.958400
0.34345  3.567800  1.958200
0.34488  3.568100  1.955200
0.34633  3.570200  1.958600
0.34778  3.571400  1.961900
0.34925  3.574300  1.964500
0.35074  3.577600  1.965400
0.35223  3.581900  1.968100
0.35374  3.585800  1.971700
0.35526  3.589300  1.975000
0.35679  3.594600  1.979600
0.35834  3.599900  1.985200
0.35990  3.605200  1.990000
0.36147  3.610500  1.996500
0.36306  3.616700  2.002700
0.36466  3.624300  2.008100
0.36628  3.632900  2.013100
0.36791  3.641900  2.019200
0.36955  3.650300  2.025500
0.37121  3.660300  2.030800
0.37289  3.671800  2.036800
0.37458  3.682500  2.045100
0.37628  3.695100  2.052400
0.37800  3.708900  2.060200
0.37974  3.723900  2.069000
0.38149  3.741600  2.076900
0.38326  3.760300  2.084700
0.38505  3.780300  2.093100
0.38685  3.801400  2.102300
0.38867  3.824500  2.111100
0.39050  3.849500  2.120500
0.39236  3.875900  2.130700
0.39423  3.906900  2.140000
0.39612  3.940200  2.149000
0.39803  3.977900  2.158100
0.39995  4.019500  2.163700
0.40190  4.063700  2.165900
0.40386  4.111500  2.164200
0.40584  4.160600  2.157400
0.40785  4.209700  2.145700
0.40987  4.258300  2.127700
0.41191  4.303500  2.104900
0.41397  4.346000  2.078800
0.41606  4.385700  2.049100
0.41816  4.422700  2.018600
0.42029  4.456100  1.987900
0.42244  4.486500  1.959300
0.42461  4.517500  1.932500
0.42680  4.548700  1.907800
0.42901  4.583400  1.885800
0.43125  4.623200  1.862500
0.43351  4.668100  1.838400
0.43580  4.717900  1.809300
0.43811  4.773900  1.769100
0.44044  4.831100  1.718200
0.44280  4.885000  1.655000
0.44519  4.933100  1.580200
0.44760  4.969600  1.496000
0.45004  4.992000  1.408000
0.45250  5.000900  1.319000
0.45499  4.998200  1.232800
0.45751  4.985500  1.153300
0.46006  4.964300  1.081600
0.46263  4.938200  1.014900
0.46524  4.909200  0.955460
0.46787  4.878300  0.901400
0.47053  4.847100  0.851380
0.47323  4.814600  0.807010
0.47595  4.781300  0.766650
0.47871  4.748700  0.729560
0.48150  4.716600  0.695780
0.48432  4.685300  0.663920
0.48717  4.654700  0.635950
0.49006  4.624700  0.608280
0.49298  4.595800  0.583610
0.49594  4.566100  0.560260
0.49893  4.538500  0.537610
0.50196  4.511100  0.517550
0.50503  4.483500  0.500080
0.50814  4.457200  0.483670
0.51128  4.431500  0.468170
0.51446  4.407100  0.453620
0.51768  4.384100  0.438400
0.52095  4.361800  0.424670
0.52425  4.340500  0.411570
0.52760  4.319200  0.399160
0.53099  4.299300  0.388490
0.53442  4.279500  0.377700
0.53790  4.260500  0.367790
0.54142  4.241900  0.358830
0.54499  4.223500  0.351180
0.54861  4.205700  0.344250
0.55227  4.189300  0.334850
0.55599  4.173000  0.328430
0.55975  4.157200  0.321410
0.56357  4.141800  0.314800
0.56744  4.126600  0.308670
0.57136  4.112100  0.300900
0.57534  4.098100  0.293350
0.57937  4.084100  0.285890
0.58346  4.070000  0.280390
0.58761  4.056600  0.274720
0.59181  4.043100  0.269650
0.59608  4.029600  0.267020
0.60041  4.016300  0.263980
0.60481  4.003400  0.260000
0.60926  3.990800  0.256590
0.61379  3.978800  0.250550
0.61838  3.967200  0.245860
0.62304  3.956100  0.240580
0.62777  3.945700  0.234350
0.63258  3.935300  0.228510
0.63746  3.925100  0.224540
0.64241  3.915400  0.221880
0.64744  3.906400  0.219010
0.65255  3.897700  0.216260
0.65775  3.888900  0.214060
0.66302  3.880800  0.208870
0.66838  3.873000  0.207290
0.67383  3.865400  0.203370
0.67937  3.858000  0.198750
0.68500  3.850600  0.194140
0.69073  3.843200  0.191740
0.69655  3.836100  0.187760
0.70247  3.828900  0.183920
0.70849  3.822200  0.181230
0.71461  3.815200  0.179900
0.72084  3.809100  0.178630
0.72719  3.802700  0.178100
0.73364  3.797500  0.173740
0.74021  3.792800  0.167600
0.74690  3.786600  0.159560
0.75371  3.780400  0.154110
0.76065  3.774300  0.147130
0.76771  3.766700  0.138930
0.77491  3.759700  0.135990
0.78224  3.752600  0.137280
0.78971  3.744700  0.139220
0.79733  3.736900  0.139120
0.80510  3.729900  0.134960
0.81302  3.723600  0.131140
0.82109  3.717100  0.130580
0.82933  3.709700  0.126480
0.83774  3.704600  0.122530
0.84632  3.700600  0.118420
0.85507  3.695200  0.114360
0.86401  3.690700  0.112120
0.87314  3.686900  0.109380
0.88246  3.684500  0.103970
0.89198  3.682500  0.102960
0.90171  3.681300  0.108380
0.91166  3.682500  0.111100
0.92182  3.677400  0.099599
0.93222  3.671800  0.091276
0.94285  3.664600  0.083852
0.95373  3.661000  0.082964
0.96487  3.657400  0.082093
0.97626  3.653900  0.081268
0.98793  3.650400  0.080462
0.99988  3.646900  0.079671
