; From SOPRA S.A. http://www.sopra-sa.com/indices.htm
; Filename    Symbol               Range (nm)     Description
; GAAS150T    GaAs                275      999    Gallium Arsenide (Temp: 150 C)
; lambda/um       n         k
0.27583  3.820500  3.055000
0.27675  3.850500  3.014700
0.27768  3.869800  2.973800
0.27862  3.887700  2.932400
0.27956  3.902100  2.896600
0.28051  3.918300  2.855500
0.28146  3.937000  2.801900
0.28243  3.947600  2.749900
0.28339  3.954100  2.705700
0.28437  3.959300  2.652100
0.28535  3.964900  2.601000
0.28634  3.959000  2.552900
0.28734  3.953600  2.507800
0.28834  3.945800  2.471100
0.28935  3.938500  2.434300
0.29036  3.926000  2.394100
0.29139  3.915100  2.361300
0.29242  3.899600  2.327400
0.29346  3.882000  2.301300
0.29450  3.869000  2.271100
0.29555  3.854100  2.244400
0.29662  3.837000  2.222500
0.29768  3.823900  2.199500
0.29876  3.813300  2.179500
0.29984  3.799600  2.161100
0.30093  3.782400  2.144300
0.30203  3.763300  2.128300
0.30314  3.745900  2.108900
0.30426  3.728000  2.092100
0.30538  3.712000  2.077700
0.30651  3.696700  2.065400
0.30766  3.684100  2.053800
0.30880  3.675000  2.041700
0.30996  3.666800  2.028400
0.31113  3.659600  2.019900
0.31231  3.651700  2.014300
0.31349  3.641300  2.007800
0.31468  3.630800  2.002500
0.31589  3.620400  1.995300
0.31710  3.611900  1.990400
0.31832  3.604200  1.985500
0.31955  3.595800  1.979600
0.32079  3.586500  1.974800
0.32204  3.579200  1.971700
0.32330  3.575400  1.970000
0.32457  3.568400  1.969100
0.32585  3.561800  1.972200
0.32714  3.557800  1.973100
0.32844  3.554500  1.971300
0.32975  3.548000  1.968200
0.33107  3.540200  1.962800
0.33240  3.535200  1.958400
0.33374  3.531000  1.963200
0.33510  3.530500  1.965300
0.33646  3.532300  1.967200
0.33783  3.534000  1.968600
0.33922  3.539100  1.973100
0.34062  3.544400  1.975600
0.34203  3.548300  1.976800
0.34345  3.548500  1.975200
0.34488  3.548500  1.975000
0.34633  3.552400  1.977700
0.34778  3.553900  1.984400
0.34925  3.556700  1.988100
0.35074  3.560900  1.992300
0.35223  3.565400  1.995900
0.35374  3.570800  2.000800
0.35526  3.575000  2.007400
0.35679  3.580700  2.014200
0.35834  3.586500  2.021500
0.35990  3.592700  2.030200
0.36147  3.599200  2.036900
0.36306  3.607800  2.043700
0.36466  3.618000  2.051800
0.36628  3.628900  2.058900
0.36791  3.639800  2.066800
0.36955  3.652700  2.074400
0.37121  3.664800  2.083500
0.37289  3.678200  2.093800
0.37458  3.691900  2.104500
0.37628  3.707400  2.115300
0.37800  3.724600  2.125700
0.37974  3.744800  2.136400
0.38149  3.766200  2.148800
0.38326  3.789100  2.160600
0.38505  3.814800  2.173300
0.38685  3.843300  2.187100
0.38867  3.874700  2.201900
0.39050  3.910400  2.217000
0.39236  3.950800  2.231100
0.39423  3.996700  2.241700
0.39612  4.048400  2.249100
0.39803  4.104500  2.249200
0.39995  4.163600  2.242600
0.40190  4.223100  2.227600
0.40386  4.281200  2.204000
0.40584  4.334400  2.175800
0.40785  4.382000  2.142000
0.40987  4.422400  2.106400
0.41191  4.456200  2.071200
0.41397  4.486100  2.039000
0.41606  4.513400  2.009700
0.41816  4.539400  1.983500
0.42029  4.568700  1.962900
0.42244  4.603100  1.946000
0.42461  4.646800  1.931700
0.42680  4.702400  1.915400
0.42901  4.770300  1.890300
0.43125  4.845600  1.848900
0.43351  4.922700  1.790000
0.43580  4.993700  1.711500
0.43811  5.049100  1.613500
0.44044  5.086000  1.504300
0.44280  5.099700  1.395900
0.44519  5.095000  1.293200
0.44760  5.077900  1.199700
0.45004  5.052600  1.116300
0.45250  5.022800  1.040900
0.45499  4.988500  0.974580
0.45751  4.953000  0.915950
0.46006  4.916400  0.863090
0.46263  4.878900  0.814660
0.46524  4.842800  0.772380
0.46787  4.806100  0.735120
0.47053  4.770900  0.701310
0.47323  4.736900  0.671240
0.47595  4.703000  0.643890
0.47871  4.670800  0.616170
0.48150  4.639700  0.591020
0.48432  4.609000  0.565730
0.48717  4.579700  0.542450
0.49006  4.550400  0.523110
0.49298  4.521300  0.505680
0.49594  4.493700  0.486540
0.49893  4.467200  0.470030
0.50196  4.440700  0.456130
0.50503  4.415300  0.442230
0.50814  4.390900  0.428780
0.51128  4.367600  0.416250
0.51446  4.344700  0.403480
0.51768  4.323000  0.392900
0.52095  4.301700  0.383590
0.52425  4.280300  0.373220
0.52760  4.260700  0.362270
0.53099  4.241600  0.352840
0.53442  4.222700  0.344700
0.53790  4.205400  0.334720
0.54142  4.188000  0.326880
0.54499  4.171500  0.319060
0.54861  4.155000  0.311300
0.55227  4.139100  0.305610
0.55599  4.123500  0.299220
0.55975  4.108400  0.293750
0.56357  4.094000  0.288120
0.56744  4.079700  0.282580
0.57136  4.065700  0.278460
0.57534  4.052000  0.272860
0.57937  4.038500  0.267680
0.58346  4.025400  0.262530
0.58761  4.012100  0.257660
0.59181  3.999300  0.253620
0.59608  3.987200  0.249210
0.60041  3.975500  0.245050
0.60481  3.964100  0.240340
0.60926  3.953100  0.235880
0.61379  3.942300  0.231680
0.61838  3.931100  0.227160
0.62304  3.920900  0.222330
0.62777  3.910900  0.218200
0.63258  3.901000  0.214250
0.63746  3.891500  0.210160
0.64241  3.882200  0.206940
0.64744  3.873200  0.203930
0.65255  3.864500  0.202880
0.65775  3.856500  0.199290
0.66302  3.848900  0.195870
0.66838  3.841400  0.193850
0.67383  3.834700  0.191190
0.67937  3.828200  0.186680
0.68500  3.821400  0.182900
0.69073  3.814300  0.177900
0.69655  3.807400  0.173990
0.70247  3.801600  0.171290
0.70849  3.795500  0.170210
0.71461  3.790400  0.167090
0.72084  3.785100  0.165590
0.72719  3.779000  0.159720
0.73364  3.772700  0.153180
0.74021  3.765600  0.147290
0.74690  3.756800  0.140210
0.75371  3.749700  0.136040
0.76065  3.742100  0.130260
0.76771  3.735100  0.128400
0.77491  3.727500  0.126220
0.78224  3.720400  0.125520
0.78971  3.713200  0.123760
0.79733  3.707800  0.119380
0.80510  3.701900  0.117470
0.81302  3.695900  0.110170
0.82109  3.690400  0.101770
0.82933  3.685800  0.105580
0.83774  3.682600  0.107050
0.84632  3.678000  0.109870
0.85507  3.673600  0.108390
0.86401  3.671300  0.112270
0.87314  3.667700  0.110260
0.88246  3.666500  0.104400
0.89198  3.665400  0.094780
0.90171  3.664700  0.084289
0.91166  3.659100  0.082065
0.92182  3.647300  0.088008
0.93222  3.632800  0.095914
0.94285  3.615000  0.101570
0.95373  3.610500  0.099835
0.96487  3.606200  0.098119
0.97626  3.601900  0.096421
0.98793  3.597600  0.094740
0.99988  3.593500  0.093084
