; From SOPRA S.A. http://www.sopra-sa.com/indices.htm
; Filename    Symbol               Range (nm)     Description
; GAAS175T    GaAs                275      999    Gallium Arsenide (Temp: 175 C)
; lambda/um       n         k
0.27583  3.821300  3.097400
0.27675  3.841600  3.062000
0.27768  3.859600  3.020800
0.27862  3.883800  2.981800
0.27956  3.891300  2.925900
0.28051  3.906600  2.873900
0.28146  3.902600  2.819100
0.28243  3.912100  2.761500
0.28339  3.921900  2.704100
0.28437  3.930800  2.659400
0.28535  3.935100  2.615000
0.28634  3.933800  2.577100
0.28734  3.931200  2.534400
0.28834  3.930700  2.498500
0.28935  3.921200  2.459500
0.29036  3.906100  2.427400
0.29139  3.892800  2.389300
0.29242  3.881700  2.352500
0.29346  3.874000  2.320600
0.29450  3.858500  2.291800
0.29555  3.842000  2.263200
0.29662  3.828200  2.233400
0.29768  3.815600  2.209200
0.29876  3.804500  2.186000
0.29984  3.790800  2.165800
0.30093  3.774200  2.146400
0.30203  3.764000  2.130800
0.30314  3.750000  2.116400
0.30426  3.741000  2.107700
0.30538  3.725800  2.092600
0.30651  3.709700  2.078200
0.30766  3.698600  2.063800
0.30880  3.686000  2.052300
0.30996  3.674100  2.041200
0.31113  3.662000  2.030000
0.31231  3.650300  2.018300
0.31349  3.643600  2.013900
0.31468  3.632100  2.003000
0.31589  3.625600  1.996600
0.31710  3.616400  1.987100
0.31832  3.611800  1.981800
0.31955  3.607700  1.980900
0.32079  3.600500  1.976800
0.32204  3.596600  1.975900
0.32330  3.590900  1.973800
0.32457  3.583500  1.971100
0.32585  3.578500  1.975500
0.32714  3.566400  1.973100
0.32844  3.558600  1.972300
0.32975  3.552400  1.969700
0.33107  3.553500  1.967300
0.33240  3.550600  1.968500
0.33374  3.546100  1.962500
0.33510  3.546100  1.959500
0.33646  3.544500  1.954100
0.33783  3.543000  1.952700
0.33922  3.544400  1.957700
0.34062  3.543700  1.959700
0.34203  3.545800  1.961300
0.34345  3.550000  1.962800
0.34488  3.555400  1.966100
0.34633  3.557300  1.972900
0.34778  3.558800  1.976600
0.34925  3.562200  1.981600
0.35074  3.565500  1.985900
0.35223  3.568900  1.991100
0.35374  3.573400  1.996400
0.35526  3.578300  2.000700
0.35679  3.583300  2.005100
0.35834  3.588600  2.011500
0.35990  3.595500  2.017600
0.36147  3.603400  2.023500
0.36306  3.611300  2.030000
0.36466  3.620700  2.037100
0.36628  3.630200  2.045000
0.36791  3.640200  2.054500
0.36955  3.651000  2.062800
0.37121  3.662800  2.072200
0.37289  3.675800  2.081700
0.37458  3.690100  2.091200
0.37628  3.705600  2.101000
0.37800  3.722700  2.109200
0.37974  3.740700  2.118500
0.38149  3.761700  2.129500
0.38326  3.782900  2.140900
0.38505  3.807600  2.153500
0.38685  3.833400  2.165100
0.38867  3.862900  2.178500
0.39050  3.894900  2.190800
0.39236  3.930800  2.202700
0.39423  3.971200  2.213700
0.39612  4.015000  2.221400
0.39803  4.065700  2.226000
0.39995  4.120900  2.225700
0.40190  4.177000  2.217100
0.40386  4.235100  2.201100
0.40584  4.289200  2.178200
0.40785  4.339200  2.149400
0.40987  4.383100  2.116500
0.41191  4.422300  2.081700
0.41397  4.455300  2.048700
0.41606  4.485300  2.018300
0.41816  4.514600  1.991600
0.42029  4.542900  1.967200
0.42244  4.573600  1.946800
0.42461  4.610400  1.929200
0.42680  4.654300  1.912800
0.42901  4.709200  1.891800
0.43125  4.774200  1.860100
0.43351  4.846200  1.814200
0.43580  4.917700  1.753300
0.43811  4.982100  1.672500
0.44044  5.032100  1.578600
0.44280  5.063200  1.475700
0.44519  5.075700  1.372400
0.44760  5.071600  1.273900
0.45004  5.056100  1.185300
0.45250  5.032800  1.104000
0.45499  5.003700  1.031200
0.45751  4.971100  0.967160
0.46006  4.937100  0.910030
0.46263  4.901200  0.857900
0.46524  4.865500  0.810620
0.46787  4.829400  0.768420
0.47053  4.792400  0.732090
0.47323  4.757400  0.697930
0.47595  4.723200  0.668540
0.47871  4.690300  0.640460
0.48150  4.658100  0.614650
0.48432  4.626500  0.591180
0.48717  4.597400  0.567250
0.49006  4.568300  0.545690
0.49298  4.540000  0.524780
0.49594  4.512100  0.507000
0.49893  4.484700  0.490220
0.50196  4.458900  0.472910
0.50503  4.432700  0.457860
0.50814  4.408800  0.441910
0.51128  4.385100  0.428030
0.51446  4.361600  0.415000
0.51768  4.339200  0.401950
0.52095  4.317100  0.391120
0.52425  4.295900  0.381370
0.52760  4.275500  0.371000
0.53099  4.255500  0.361430
0.53442  4.236900  0.351260
0.53790  4.219100  0.342180
0.54142  4.201600  0.333200
0.54499  4.184400  0.325970
0.54861  4.167400  0.318290
0.55227  4.151000  0.311590
0.55599  4.135100  0.306590
0.55975  4.119500  0.301540
0.56357  4.104700  0.294400
0.56744  4.090400  0.288370
0.57136  4.076800  0.281510
0.57534  4.063100  0.275810
0.57937  4.049200  0.270530
0.58346  4.035600  0.265770
0.58761  4.022800  0.260080
0.59181  4.010000  0.257070
0.59608  3.997200  0.254000
0.60041  3.984900  0.250050
0.60481  3.973100  0.244300
0.60926  3.961700  0.240420
0.61379  3.950600  0.235340
0.61838  3.939500  0.231030
0.62304  3.928400  0.227210
0.62777  3.918100  0.222850
0.63258  3.908300  0.219950
0.63746  3.898900  0.217180
0.64241  3.889800  0.215030
0.64744  3.881300  0.210800
0.65255  3.872800  0.205790
0.65775  3.864900  0.204130
0.66302  3.856900  0.200200
0.66838  3.848800  0.198090
0.67383  3.841000  0.196220
0.67937  3.833700  0.191240
0.68500  3.827000  0.189050
0.69073  3.820500  0.184350
0.69655  3.813800  0.182630
0.70247  3.807700  0.178930
0.70849  3.802100  0.173420
0.71461  3.797000  0.167760
0.72084  3.791800  0.163900
0.72719  3.786000  0.160110
0.73364  3.780100  0.152850
0.74021  3.774000  0.145960
0.74690  3.766700  0.140730
0.75371  3.759700  0.138350
0.76065  3.750800  0.137610
0.76771  3.742600  0.137650
0.77491  3.735800  0.132980
0.78224  3.727800  0.128240
0.78971  3.719800  0.126860
0.79733  3.713600  0.124610
0.80510  3.707200  0.116400
0.81302  3.701500  0.111930
0.82109  3.698200  0.113850
0.82933  3.692100  0.115630
0.83774  3.685300  0.113230
0.84632  3.679600  0.111340
0.85507  3.676000  0.105020
0.86401  3.672100  0.102500
0.87314  3.669200  0.098376
0.88246  3.668600  0.092005
0.89198  3.670900  0.089185
0.90171  3.670300  0.087889
0.91166  3.665900  0.094600
0.92182  3.657900  0.097489
0.93222  3.646100  0.105990
0.94285  3.631100  0.113070
0.95373  3.626400  0.111720
0.96487  3.621900  0.110380
0.97626  3.617400  0.109060
0.98793  3.613000  0.107740
0.99988  3.608700  0.106450
