; From SOPRA S.A. http://www.sopra-sa.com/indices.htm
; Filename    Symbol               Range (nm)     Description
; GAAS060T    GaAs                275      999    Gallium Arsenide (Temp: 60 C)
; lambda/um       n         k
0.27583  3.938900  3.007100
0.27675  3.973600  2.958400
0.27768  3.999600  2.924200
0.27862  4.010200  2.885400
0.27956  4.028600  2.831200
0.28051  4.045200  2.772800
0.28146  4.038000  2.713000
0.28243  4.019500  2.651000
0.28339  4.015900  2.597000
0.28437  4.003300  2.550200
0.28535  3.988600  2.499800
0.28634  3.976500  2.457800
0.28734  3.965300  2.419000
0.28834  3.946600  2.375700
0.28935  3.934100  2.338100
0.29036  3.925100  2.299100
0.29139  3.908000  2.268000
0.29242  3.897300  2.245800
0.29346  3.883300  2.220800
0.29450  3.865800  2.204000
0.29555  3.844700  2.181300
0.29662  3.820900  2.161400
0.29768  3.800900  2.131300
0.29876  3.776400  2.109600
0.29984  3.759300  2.093000
0.30093  3.742600  2.077700
0.30203  3.728400  2.065700
0.30314  3.714300  2.056900
0.30426  3.700000  2.048700
0.30538  3.688600  2.041700
0.30651  3.673700  2.029400
0.30766  3.663700  2.020700
0.30880  3.655600  2.006100
0.30996  3.644600  1.998800
0.31113  3.632800  1.992100
0.31231  3.621100  1.988100
0.31349  3.609600  1.981500
0.31468  3.598000  1.978700
0.31589  3.589300  1.976100
0.31710  3.580800  1.977300
0.31832  3.571600  1.975700
0.31955  3.565400  1.973300
0.32079  3.559200  1.973800
0.32204  3.552600  1.979900
0.32330  3.544000  1.980200
0.32457  3.541100  1.984300
0.32585  3.535500  1.982000
0.32714  3.531800  1.981600
0.32844  3.531500  1.980000
0.32975  3.529700  1.982900
0.33107  3.520700  1.983400
0.33240  3.519200  1.985000
0.33374  3.513000  1.985500
0.33510  3.509200  1.987200
0.33646  3.506400  1.982100
0.33783  3.509700  1.980800
0.33922  3.511900  1.979500
0.34062  3.517700  1.979800
0.34203  3.525300  1.981900
0.34345  3.529200  1.989000
0.34488  3.528900  1.998700
0.34633  3.536300  2.007500
0.34778  3.536900  2.013100
0.34925  3.542100  2.019800
0.35074  3.546600  2.026100
0.35223  3.552400  2.031700
0.35374  3.558100  2.038200
0.35526  3.565100  2.044500
0.35679  3.571100  2.051000
0.35834  3.577800  2.059700
0.35990  3.585600  2.069500
0.36147  3.594300  2.080300
0.36306  3.605000  2.092600
0.36466  3.617100  2.103500
0.36628  3.630100  2.115000
0.36791  3.644100  2.125600
0.36955  3.658700  2.137600
0.37121  3.674100  2.149300
0.37289  3.689600  2.160900
0.37458  3.707900  2.174600
0.37628  3.728400  2.190100
0.37800  3.749700  2.206000
0.37974  3.775500  2.222700
0.38149  3.803500  2.239500
0.38326  3.835800  2.257800
0.38505  3.872500  2.277400
0.38685  3.915200  2.298100
0.38867  3.966500  2.315900
0.39050  4.025500  2.329700
0.39236  4.091600  2.337100
0.39423  4.161700  2.333500
0.39612  4.232200  2.316000
0.39803  4.300000  2.287300
0.39995  4.359300  2.247900
0.40190  4.408100  2.203400
0.40386  4.447300  2.158400
0.40584  4.477800  2.114500
0.40785  4.504500  2.076600
0.40987  4.526700  2.046400
0.41191  4.546400  2.024200
0.41397  4.569000  2.011400
0.41606  4.602800  2.006400
0.41816  4.649800  2.007700
0.42029  4.717600  2.005200
0.42244  4.803400  1.989500
0.42461  4.902300  1.950100
0.42680  5.005100  1.879800
0.42901  5.096500  1.777900
0.43125  5.162200  1.651600
0.43351  5.194900  1.515700
0.43580  5.198200  1.385000
0.43811  5.179800  1.266500
0.44044  5.149500  1.163500
0.44280  5.111400  1.080400
0.44519  5.071700  1.006800
0.44760  5.030700  0.942240
0.45004  4.990600  0.884900
0.45250  4.948600  0.832050
0.45499  4.907300  0.787490
0.45751  4.867400  0.745610
0.46006  4.827700  0.709110
0.46263  4.788300  0.677300
0.46524  4.752800  0.646430
0.46787  4.716600  0.624930
0.47053  4.682000  0.600220
0.47323  4.649600  0.576790
0.47595  4.618700  0.555500
0.47871  4.587900  0.535870
0.48150  4.559000  0.517490
0.48432  4.531400  0.497730
0.48717  4.504000  0.481270
0.49006  4.476700  0.465930
0.49298  4.451700  0.448470
0.49594  4.425500  0.435820
0.49893  4.399900  0.422420
0.50196  4.376100  0.408940
0.50503  4.353000  0.395460
0.50814  4.330700  0.383130
0.51128  4.309600  0.371260
0.51446  4.288800  0.361150
0.51768  4.268200  0.353450
0.52095  4.248300  0.344610
0.52425  4.229300  0.334710
0.52760  4.210500  0.328740
0.53099  4.192200  0.321670
0.53442  4.174400  0.313170
0.53790  4.157100  0.305440
0.54142  4.140400  0.298860
0.54499  4.123900  0.293000
0.54861  4.107900  0.287870
0.55227  4.092700  0.284420
0.55599  4.078400  0.279150
0.55975  4.064700  0.273680
0.56357  4.051600  0.269730
0.56744  4.038500  0.264710
0.57136  4.025500  0.260040
0.57534  4.012700  0.256260
0.57937  4.000500  0.250760
0.58346  3.988600  0.246000
0.58761  3.976500  0.241310
0.59181  3.964800  0.237320
0.59608  3.953500  0.232700
0.60041  3.942600  0.227600
0.60481  3.931400  0.223380
0.60926  3.920600  0.219250
0.61379  3.910500  0.214480
0.61838  3.900700  0.211000
0.62304  3.891200  0.207380
0.62777  3.881600  0.204930
0.63258  3.872100  0.202330
0.63746  3.863300  0.199390
0.64241  3.854100  0.196580
0.64744  3.845700  0.193600
0.65255  3.837900  0.190380
0.65775  3.830400  0.190230
0.66302  3.824000  0.186090
0.66838  3.817200  0.186060
0.67383  3.810700  0.182550
0.67937  3.804400  0.179390
0.68500  3.798700  0.175160
0.69073  3.793800  0.168730
0.69655  3.787700  0.162150
0.70247  3.782000  0.154130
0.70849  3.776100  0.149380
0.71461  3.768700  0.143390
0.72084  3.760900  0.134700
0.72719  3.752600  0.132750
0.73364  3.744000  0.129280
0.74021  3.735800  0.127130
0.74690  3.726600  0.121200
0.75371  3.719800  0.120430
0.76065  3.712500  0.120810
0.76771  3.706200  0.120970
0.77491  3.698800  0.118810
0.78224  3.693900  0.114900
0.78971  3.688200  0.111330
0.79733  3.682300  0.111570
0.80510  3.676900  0.109310
0.81302  3.680000  0.113810
0.82109  3.669700  0.093388
0.82933  3.662600  0.081076
0.83774  3.659800  0.067609
0.84632  3.660100  0.058501
0.85507  3.663800  0.045552
0.86401  3.665500  0.039664
0.87314  3.663200  0.039243
0.88246  3.653300  0.048923
0.89198  3.640300  0.063682
0.90171  3.626000  0.087971
0.91166  3.605500  0.091570
0.92182  3.586100  0.105760
0.93222  3.568900  0.119530
0.94285  3.555400  0.132680
0.95373  3.550200  0.130080
0.96487  3.545100  0.127530
0.97626  3.537600  0.126830
0.98793  3.535300  0.122590
0.99988  3.530600  0.120200
