; From SOPRA S.A. http://www.sopra-sa.com/indices.htm
; Filename    Symbol               Range (nm)     Description
; GAAS081T    GaAs                275      999    Gallium Arsenide (Temp: 81 C)
; lambda/um       n         k
0.27583  3.903900  2.989800
0.27675  3.923500  2.947100
0.27768  3.941400  2.920300
0.27862  3.960100  2.873800
0.27956  3.973800  2.828400
0.28051  3.993900  2.779800
0.28146  3.992800  2.725200
0.28243  3.994800  2.678400
0.28339  3.995300  2.624900
0.28437  3.994200  2.574800
0.28535  3.984800  2.518200
0.28634  3.968300  2.482300
0.28734  3.956900  2.435100
0.28834  3.947500  2.394700
0.28935  3.941400  2.363000
0.29036  3.931400  2.332100
0.29139  3.908300  2.299300
0.29242  3.892400  2.272700
0.29346  3.874000  2.247200
0.29450  3.858300  2.220500
0.29555  3.837000  2.190000
0.29662  3.815800  2.167100
0.29768  3.802300  2.140000
0.29876  3.789800  2.117600
0.29984  3.775300  2.099400
0.30093  3.757800  2.083000
0.30203  3.740600  2.073000
0.30314  3.727500  2.061300
0.30426  3.709300  2.050200
0.30538  3.697300  2.040000
0.30651  3.679800  2.028300
0.30766  3.670000  2.018300
0.30880  3.660600  2.006900
0.30996  3.646900  1.995800
0.31113  3.635200  1.986800
0.31231  3.624900  1.982500
0.31349  3.614200  1.982000
0.31468  3.603400  1.980100
0.31589  3.592600  1.978900
0.31710  3.583800  1.976600
0.31832  3.575400  1.974500
0.31955  3.572700  1.969800
0.32079  3.565400  1.963400
0.32204  3.557600  1.956900
0.32330  3.551800  1.952600
0.32457  3.548000  1.954300
0.32585  3.546300  1.959200
0.32714  3.543400  1.965700
0.32844  3.540100  1.967300
0.32975  3.533700  1.967000
0.33107  3.529800  1.967700
0.33240  3.525100  1.969200
0.33374  3.516800  1.972800
0.33510  3.512600  1.974500
0.33646  3.510600  1.976100
0.33783  3.513000  1.979100
0.33922  3.519600  1.982100
0.34062  3.525000  1.984800
0.34203  3.529500  1.983800
0.34345  3.532200  1.984300
0.34488  3.536500  1.987100
0.34633  3.538500  1.994000
0.34778  3.540000  2.003300
0.34925  3.543200  2.009800
0.35074  3.548400  2.015300
0.35223  3.554000  2.020800
0.35374  3.561000  2.027300
0.35526  3.567500  2.034700
0.35679  3.575000  2.041400
0.35834  3.581600  2.049900
0.35990  3.589700  2.057500
0.36147  3.597900  2.067800
0.36306  3.606700  2.078200
0.36466  3.617200  2.087700
0.36628  3.629300  2.097500
0.36791  3.642200  2.108400
0.36955  3.656300  2.119800
0.37121  3.671300  2.131800
0.37289  3.688400  2.142900
0.37458  3.704100  2.155800
0.37628  3.722200  2.168800
0.37800  3.743300  2.182500
0.37974  3.766200  2.197300
0.38149  3.792800  2.212600
0.38326  3.822000  2.229100
0.38505  3.855100  2.246800
0.38685  3.892800  2.265100
0.38867  3.937600  2.282600
0.39050  3.989500  2.298100
0.39236  4.046700  2.310100
0.39423  4.112000  2.314000
0.39612  4.181400  2.305700
0.39803  4.250600  2.287700
0.39995  4.314800  2.258200
0.40190  4.371300  2.219900
0.40386  4.417200  2.177800
0.40584  4.452800  2.135500
0.40785  4.481800  2.095900
0.40987  4.506200  2.061800
0.41191  4.526900  2.033500
0.41397  4.549000  2.013400
0.41606  4.578500  2.000500
0.41816  4.616900  1.994200
0.42029  4.668500  1.990700
0.42244  4.738000  1.980900
0.42461  4.822900  1.956600
0.42680  4.918100  1.909400
0.42901  5.012900  1.832400
0.43125  5.094900  1.727500
0.43351  5.149500  1.605700
0.43580  5.177200  1.478600
0.43811  5.178200  1.352900
0.44044  5.158700  1.240700
0.44280  5.127200  1.145600
0.44519  5.091300  1.063000
0.44760  5.051300  0.992490
0.45004  5.010500  0.933020
0.45250  4.969000  0.878970
0.45499  4.929100  0.830400
0.45751  4.889000  0.787920
0.46006  4.849800  0.749560
0.46263  4.811400  0.711950
0.46524  4.774300  0.679690
0.46787  4.739200  0.650420
0.47053  4.705900  0.622470
0.47323  4.673100  0.598010
0.47595  4.641800  0.575490
0.47871  4.610500  0.553620
0.48150  4.580700  0.533420
0.48432  4.550200  0.515430
0.48717  4.521000  0.497960
0.49006  4.493600  0.479790
0.49298  4.465200  0.466510
0.49594  4.438500  0.452910
0.49893  4.412900  0.438400
0.50196  4.388800  0.424930
0.50503  4.365500  0.410740
0.50814  4.342700  0.398990
0.51128  4.321100  0.387220
0.51446  4.299900  0.375610
0.51768  4.279500  0.363900
0.52095  4.259600  0.353190
0.52425  4.240400  0.344850
0.52760  4.221400  0.338390
0.53099  4.203100  0.329510
0.53442  4.185700  0.321730
0.53790  4.168400  0.314190
0.54142  4.151400  0.308300
0.54499  4.134900  0.302520
0.54861  4.118900  0.296840
0.55227  4.103400  0.292240
0.55599  4.088400  0.287250
0.55975  4.074300  0.283100
0.56357  4.060400  0.279170
0.56744  4.046900  0.273860
0.57136  4.033700  0.268800
0.57534  4.021100  0.262880
0.57937  4.008600  0.258110
0.58346  3.996200  0.252460
0.58761  3.984000  0.246600
0.59181  3.972200  0.241510
0.59608  3.960700  0.237050
0.60041  3.949100  0.233230
0.60481  3.938400  0.228180
0.60926  3.927500  0.224210
0.61379  3.916500  0.220970
0.61838  3.906600  0.216180
0.62304  3.896700  0.213790
0.62777  3.887100  0.209230
0.63258  3.877400  0.206160
0.63746  3.868000  0.203000
0.64241  3.859100  0.201070
0.64744  3.849800  0.198800
0.65255  3.842100  0.195580
0.65775  3.834300  0.191510
0.66302  3.827200  0.188620
0.66838  3.820700  0.185240
0.67383  3.814600  0.182530
0.67937  3.809000  0.177790
0.68500  3.803100  0.174320
0.69073  3.797200  0.170230
0.69655  3.792000  0.165420
0.70247  3.786700  0.161160
0.70849  3.781400  0.156450
0.71461  3.774700  0.151030
0.72084  3.767600  0.143970
0.72719  3.760000  0.138150
0.73364  3.750900  0.129450
0.74021  3.742500  0.122140
0.74690  3.734800  0.120690
0.75371  3.727700  0.121850
0.76065  3.719000  0.115710
0.76771  3.712100  0.118220
0.77491  3.704100  0.116640
0.78224  3.697800  0.115560
0.78971  3.692900  0.112950
0.79733  3.687900  0.111450
0.80510  3.683600  0.103050
0.81302  3.679200  0.103880
0.82109  3.682800  0.115510
0.82933  3.668800  0.108710
0.83774  3.658400  0.093545
0.84632  3.652200  0.087925
0.85507  3.650900  0.073043
0.86401  3.652600  0.062726
0.87314  3.655300  0.052307
0.88246  3.654000  0.050625
0.89198  3.649800  0.053068
0.90171  3.638400  0.068973
0.91166  3.627100  0.093619
0.92182  3.603300  0.098440
0.93222  3.582500  0.113960
0.94285  3.567000  0.130920
0.95373  3.561900  0.128340
0.96487  3.556800  0.125800
0.97626  3.551900  0.123320
0.98793  3.547200  0.120880
0.99988  3.542500  0.118490
