; From SOPRA S.A. http://www.sopra-sa.com/indices.htm
; Filename    Symbol               Range (nm)     Description
; GAAS634T    GaAs                275      999    Gallium Arsenide (Temp: 634 C)
; lambda/um       n         k
0.27583  3.179100  3.291400
0.27675  3.221100  3.274600
0.27768  3.256100  3.256400
0.27862  3.294800  3.235500
0.27956  3.343700  3.211200
0.28051  3.384300  3.172000
0.28146  3.433200  3.132200
0.28243  3.459800  3.101700
0.28339  3.473900  3.071400
0.28437  3.496100  3.030800
0.28535  3.530500  2.995100
0.28634  3.550100  2.961400
0.28734  3.569100  2.931900
0.28834  3.588600  2.903500
0.28935  3.615800  2.865900
0.29036  3.635900  2.821600
0.29139  3.658000  2.784800
0.29242  3.664700  2.748400
0.29346  3.672000  2.715600
0.29450  3.682400  2.684200
0.29555  3.694900  2.647000
0.29662  3.692100  2.615200
0.29768  3.693400  2.584500
0.29876  3.688900  2.555000
0.29984  3.695600  2.523700
0.30093  3.696400  2.493800
0.30203  3.699200  2.471300
0.30314  3.699600  2.446400
0.30426  3.707900  2.424600
0.30538  3.713400  2.402500
0.30651  3.713400  2.377300
0.30766  3.710900  2.355000
0.30880  3.706700  2.331600
0.30996  3.700300  2.304200
0.31113  3.695300  2.281500
0.31231  3.684500  2.256600
0.31349  3.680800  2.233000
0.31468  3.678800  2.209800
0.31589  3.681700  2.195000
0.31710  3.680000  2.183400
0.31832  3.674400  2.173500
0.31955  3.670200  2.163800
0.32079  3.666600  2.153500
0.32204  3.664100  2.136400
0.32330  3.658000  2.119100
0.32457  3.648200  2.104700
0.32585  3.641500  2.089700
0.32714  3.642800  2.073800
0.32844  3.639100  2.068400
0.32975  3.635400  2.056200
0.33107  3.632300  2.047300
0.33240  3.632200  2.039800
0.33374  3.630500  2.033400
0.33510  3.629100  2.025200
0.33646  3.626800  2.016400
0.33783  3.623600  2.012900
0.33922  3.623700  2.005800
0.34062  3.628900  1.999100
0.34203  3.627000  1.994500
0.34345  3.627600  1.983600
0.34488  3.628100  1.977700
0.34633  3.628800  1.972400
0.34778  3.628000  1.969000
0.34925  3.627400  1.966400
0.35074  3.628200  1.961700
0.35223  3.630000  1.959200
0.35374  3.630800  1.955900
0.35526  3.630900  1.955100
0.35679  3.630500  1.953500
0.35834  3.630400  1.951000
0.35990  3.633200  1.949300
0.36147  3.635700  1.948600
0.36306  3.639300  1.949000
0.36466  3.642600  1.948700
0.36628  3.647700  1.948000
0.36791  3.653200  1.946400
0.36955  3.658200  1.946100
0.37121  3.662600  1.946100
0.37289  3.665800  1.947100
0.37458  3.671000  1.946600
0.37628  3.677200  1.945200
0.37800  3.683100  1.946400
0.37974  3.690800  1.948000
0.38149  3.698700  1.949400
0.38326  3.707400  1.949400
0.38505  3.716700  1.949800
0.38685  3.726200  1.952100
0.38867  3.735900  1.953200
0.39050  3.746100  1.955500
0.39236  3.756900  1.957000
0.39423  3.768100  1.957500
0.39612  3.781000  1.959300
0.39803  3.794700  1.961700
0.39995  3.809600  1.964800
0.40190  3.825400  1.965800
0.40386  3.842000  1.966800
0.40584  3.859700  1.967300
0.40785  3.877600  1.966800
0.40987  3.896700  1.966900
0.41191  3.916300  1.966300
0.41397  3.936500  1.965500
0.41606  3.959000  1.965100
0.41816  3.981400  1.965100
0.42029  4.005300  1.964300
0.42244  4.030100  1.962000
0.42461  4.055600  1.957000
0.42680  4.082800  1.951700
0.42901  4.110100  1.944400
0.43125  4.139700  1.935300
0.43351  4.169100  1.923800
0.43580  4.199400  1.910900
0.43811  4.231000  1.896500
0.44044  4.261400  1.880500
0.44280  4.291200  1.864000
0.44519  4.320400  1.845900
0.44760  4.349000  1.825600
0.45004  4.377800  1.806000
0.45250  4.406400  1.784300
0.45499  4.433700  1.760800
0.45751  4.460600  1.736400
0.46006  4.488400  1.709700
0.46263  4.515800  1.681300
0.46524  4.541800  1.652200
0.46787  4.567700  1.621000
0.47053  4.594400  1.587300
0.47323  4.620000  1.551900
0.47595  4.646100  1.513300
0.47871  4.671000  1.471900
0.48150  4.692500  1.426900
0.48432  4.711200  1.378800
0.48717  4.727600  1.327000
0.49006  4.740700  1.274000
0.49298  4.748500  1.221400
0.49594  4.750900  1.166300
0.49893  4.749100  1.113200
0.50196  4.742400  1.061100
0.50503  4.733200  1.009000
0.50814  4.719200  0.961210
0.51128  4.702800  0.914940
0.51446  4.683400  0.872340
0.51768  4.665000  0.832600
0.52095  4.646100  0.794810
0.52425  4.625300  0.760820
0.52760  4.603500  0.727870
0.53099  4.581500  0.698780
0.53442  4.560200  0.669680
0.53790  4.538800  0.643520
0.54142  4.518200  0.619090
0.54499  4.498800  0.594250
0.54861  4.478300  0.572340
0.55227  4.458800  0.552890
0.55599  4.438100  0.533570
0.55975  4.418000  0.515710
0.56357  4.398700  0.498750
0.56744  4.380300  0.482750
0.57136  4.363000  0.466110
0.57534  4.345800  0.451810
0.57937  4.329000  0.437910
0.58346  4.311100  0.424750
0.58761  4.292900  0.413800
0.59181  4.274900  0.404310
0.59608  4.256000  0.394260
0.60041  4.238500  0.384020
0.60481  4.221700  0.374270
0.60926  4.205200  0.363470
0.61379  4.190100  0.350640
0.61838  4.174300  0.340380
0.62304  4.159400  0.330300
0.62777  4.144400  0.321330
0.63258  4.130900  0.312920
0.63746  4.118700  0.303580
0.64241  4.105900  0.295910
0.64744  4.093300  0.292020
0.65255  4.081000  0.288280
0.65775  4.067800  0.284330
0.66302  4.055600  0.278130
0.66838  4.043200  0.274010
0.67383  4.031500  0.269520
0.67937  4.019900  0.262960
0.68500  4.010200  0.257770
0.69073  4.001900  0.251050
0.69655  3.992500  0.244890
0.70247  3.983500  0.240230
0.70849  3.974500  0.236550
0.71461  3.964800  0.232790
0.72084  3.954700  0.228740
0.72719  3.944700  0.229000
0.73364  3.934300  0.225700
0.74021  3.924300  0.223710
0.74690  3.916600  0.222050
0.75371  3.909200  0.220060
0.76065  3.901500  0.216590
0.76771  3.893700  0.214470
0.77491  3.885300  0.212260
0.78224  3.878500  0.206620
0.78971  3.870700  0.201040
0.79733  3.864200  0.193160
0.80510  3.857200  0.184380
0.81302  3.850000  0.180290
0.82109  3.843900  0.176660
0.82933  3.839300  0.174720
0.83774  3.835000  0.170200
0.84632  3.829500  0.165290
0.85507  3.823900  0.158510
0.86401  3.818900  0.151290
0.87314  3.812800  0.145640
0.88246  3.806100  0.139000
0.89198  3.798500  0.135930
0.90171  3.792200  0.134770
0.91166  3.785200  0.135020
0.92182  3.779200  0.135090
0.93222  3.773500  0.131210
0.94285  3.768900  0.130020
0.95373  3.743600  0.133850
0.96487  3.738700  0.130950
0.97626  3.734000  0.128120
0.98793  3.729300  0.125330
0.99988  3.724800  0.122610
