; From SOPRA S.A. http://www.sopra-sa.com/indices.htm
; Filename    Symbol               Range (nm)     Description
; GAAS488T    GaAs                275      999    Gallium Arsenide (Temp: 488 C)
; lambda/um       n         k
0.27583  3.454700  3.252400
0.27675  3.486300  3.221000
0.27768  3.518500  3.190400
0.27862  3.547900  3.148000
0.27956  3.576200  3.121700
0.28051  3.603200  3.091500
0.28146  3.622800  3.059800
0.28243  3.646200  3.017800
0.28339  3.670400  2.981000
0.28437  3.692200  2.933700
0.28535  3.704000  2.893900
0.28634  3.723300  2.859200
0.28734  3.732500  2.819300
0.28834  3.744800  2.778100
0.28935  3.755000  2.743200
0.29036  3.761100  2.704900
0.29139  3.772100  2.662800
0.29242  3.782400  2.624200
0.29346  3.788900  2.591800
0.29450  3.792000  2.560700
0.29555  3.786500  2.527300
0.29662  3.786000  2.498200
0.29768  3.779200  2.470500
0.29876  3.776600  2.441800
0.29984  3.772200  2.414800
0.30093  3.765000  2.385300
0.30203  3.764700  2.357600
0.30314  3.758400  2.333000
0.30426  3.753700  2.311600
0.30538  3.750600  2.292200
0.30651  3.743400  2.270000
0.30766  3.737700  2.248000
0.30880  3.731900  2.229600
0.30996  3.727800  2.209100
0.31113  3.724300  2.187100
0.31231  3.714800  2.167300
0.31349  3.709000  2.149900
0.31468  3.701400  2.132000
0.31589  3.697300  2.119500
0.31710  3.694800  2.107400
0.31832  3.688000  2.097700
0.31955  3.681000  2.087500
0.32079  3.676100  2.078900
0.32204  3.672300  2.067900
0.32330  3.667900  2.055700
0.32457  3.660000  2.048500
0.32585  3.656100  2.039700
0.32714  3.651900  2.032100
0.32844  3.646900  2.029200
0.32975  3.643300  2.024300
0.33107  3.636300  2.022300
0.33240  3.632700  2.017800
0.33374  3.630500  2.013000
0.33510  3.627900  2.006300
0.33646  3.625400  1.997900
0.33783  3.622700  1.989700
0.33922  3.621700  1.982600
0.34062  3.620700  1.976300
0.34203  3.619600  1.971600
0.34345  3.620500  1.966200
0.34488  3.620900  1.963400
0.34633  3.621400  1.961400
0.34778  3.622200  1.960400
0.34925  3.622000  1.958400
0.35074  3.622200  1.957100
0.35223  3.622600  1.957200
0.35374  3.625100  1.958000
0.35526  3.627300  1.957500
0.35679  3.630400  1.957600
0.35834  3.634000  1.957100
0.35990  3.637400  1.958100
0.36147  3.641100  1.958800
0.36306  3.645000  1.960400
0.36466  3.649000  1.960900
0.36628  3.654200  1.962700
0.36791  3.660100  1.964500
0.36955  3.666700  1.967000
0.37121  3.673800  1.968200
0.37289  3.682000  1.970000
0.37458  3.689700  1.972600
0.37628  3.698000  1.976000
0.37800  3.705900  1.979400
0.37974  3.715000  1.982100
0.38149  3.725400  1.983300
0.38326  3.736700  1.985400
0.38505  3.748500  1.988000
0.38685  3.761700  1.990900
0.38867  3.776600  1.993200
0.39050  3.791800  1.995700
0.39236  3.807300  1.999500
0.39423  3.823700  2.003400
0.39612  3.840600  2.006400
0.39803  3.859700  2.009000
0.39995  3.879400  2.011600
0.40190  3.900300  2.013900
0.40386  3.922800  2.017000
0.40584  3.947700  2.018600
0.40785  3.973500  2.020500
0.40987  4.000800  2.019900
0.41191  4.029300  2.019200
0.41397  4.058400  2.017900
0.41606  4.090300  2.013500
0.41816  4.123200  2.007800
0.42029  4.156700  2.000100
0.42244  4.191200  1.990100
0.42461  4.226000  1.977800
0.42680  4.260800  1.962300
0.42901  4.295400  1.944500
0.43125  4.328900  1.922300
0.43351  4.362100  1.900300
0.43580  4.394300  1.876900
0.43811  4.426400  1.850600
0.44044  4.456700  1.825200
0.44280  4.486600  1.799000
0.44519  4.515600  1.773000
0.44760  4.545300  1.745500
0.45004  4.574000  1.715800
0.45250  4.604200  1.685200
0.45499  4.634100  1.651100
0.45751  4.667200  1.614400
0.46006  4.698600  1.573800
0.46263  4.729100  1.529200
0.46524  4.756200  1.481000
0.46787  4.780700  1.428400
0.47053  4.799900  1.372900
0.47323  4.813800  1.314400
0.47595  4.821000  1.254000
0.47871  4.821900  1.194400
0.48150  4.817900  1.134100
0.48432  4.809400  1.074600
0.48717  4.795900  1.018200
0.49006  4.778700  0.965290
0.49298  4.758200  0.914520
0.49594  4.735700  0.868060
0.49893  4.712100  0.825450
0.50196  4.687800  0.787230
0.50503  4.662900  0.751860
0.50814  4.637800  0.719690
0.51128  4.613800  0.688900
0.51446  4.588800  0.659820
0.51768  4.564800  0.632670
0.52095  4.540200  0.608720
0.52425  4.515900  0.585070
0.52760  4.492000  0.564760
0.53099  4.469100  0.546210
0.53442  4.446800  0.528530
0.53790  4.425400  0.512610
0.54142  4.404700  0.497780
0.54499  4.385200  0.482000
0.54861  4.365600  0.466320
0.55227  4.347300  0.451590
0.55599  4.329100  0.438650
0.55975  4.311700  0.425670
0.56357  4.294000  0.414280
0.56744  4.276500  0.405910
0.57136  4.259400  0.396820
0.57534  4.243100  0.389190
0.57937  4.226500  0.381240
0.58346  4.210600  0.371820
0.58761  4.194600  0.361520
0.59181  4.179100  0.352600
0.59608  4.164000  0.343660
0.60041  4.150000  0.334150
0.60481  4.135700  0.324690
0.60926  4.121800  0.318170
0.61379  4.108200  0.309480
0.61838  4.095000  0.305450
0.62304  4.082100  0.299240
0.62777  4.069700  0.293510
0.63258  4.057900  0.285430
0.63746  4.045600  0.282180
0.64241  4.034000  0.277320
0.64744  4.022300  0.271720
0.65255  4.010600  0.264820
0.65775  3.999500  0.261410
0.66302  3.988300  0.258360
0.66838  3.978200  0.255660
0.67383  3.969000  0.251290
0.67937  3.959800  0.246760
0.68500  3.951800  0.239880
0.69073  3.943800  0.237500
0.69655  3.936100  0.234870
0.70247  3.927500  0.228650
0.70849  3.918500  0.223280
0.71461  3.910100  0.220250
0.72084  3.901500  0.217640
0.72719  3.892200  0.218020
0.73364  3.883600  0.217690
0.74021  3.875200  0.214940
0.74690  3.868600  0.208540
0.75371  3.861700  0.204450
0.76065  3.855200  0.200030
0.76771  3.848400  0.191730
0.77491  3.843300  0.187890
0.78224  3.838200  0.184110
0.78971  3.831900  0.183780
0.79733  3.824100  0.187110
0.80510  3.817700  0.184000
0.81302  3.810700  0.178610
0.82109  3.801200  0.170880
0.82933  3.792600  0.163670
0.83774  3.784900  0.160760
0.84632  3.777300  0.155940
0.85507  3.771700  0.156370
0.86401  3.764000  0.157420
0.87314  3.756500  0.156170
0.88246  3.750200  0.153730
0.89198  3.745400  0.149890
0.90171  3.739200  0.144380
0.91166  3.733200  0.134570
0.92182  3.729900  0.131520
0.93222  3.725500  0.133770
0.94285  3.721500  0.134560
0.95373  3.716500  0.132240
0.96487  3.711700  0.129970
0.97626  3.706900  0.127720
0.98793  3.702200  0.125510
0.99988  3.697600  0.123340
