; From SOPRA S.A. http://www.sopra-sa.com/indices.htm
; Filename    Symbol               Range (nm)     Description
; GAAS415T    GaAs                275      999    Gallium Arsenide (Temp: 415 C)
; lambda/um       n         k
0.27583  3.539800  3.235100
0.27675  3.562500  3.203100
0.27768  3.595000  3.156300
0.27862  3.625100  3.121900
0.27956  3.639600  3.082600
0.28051  3.659100  3.043400
0.28146  3.681300  3.001000
0.28243  3.705100  2.954600
0.28339  3.721600  2.910000
0.28437  3.731900  2.868600
0.28535  3.746500  2.836100
0.28634  3.759600  2.806700
0.28734  3.776500  2.769700
0.28834  3.791100  2.728700
0.28935  3.802300  2.688500
0.29036  3.812100  2.647100
0.29139  3.815500  2.609700
0.29242  3.815500  2.574000
0.29346  3.808200  2.535800
0.29450  3.799300  2.501800
0.29555  3.798200  2.470900
0.29662  3.792200  2.438500
0.29768  3.785300  2.408300
0.29876  3.782800  2.381600
0.29984  3.781300  2.354400
0.30093  3.774900  2.329000
0.30203  3.767100  2.307700
0.30314  3.761900  2.284900
0.30426  3.755100  2.262900
0.30538  3.748600  2.243000
0.30651  3.739000  2.222200
0.30766  3.731000  2.198600
0.30880  3.720300  2.179400
0.30996  3.711000  2.162400
0.31113  3.701500  2.148100
0.31231  3.693200  2.135200
0.31349  3.689100  2.123100
0.31468  3.683900  2.111400
0.31589  3.676200  2.101600
0.31710  3.667200  2.090600
0.31832  3.657800  2.078900
0.31955  3.653800  2.065000
0.32079  3.642000  2.056700
0.32204  3.637800  2.043400
0.32330  3.630200  2.031900
0.32457  3.625600  2.025700
0.32585  3.621500  2.018300
0.32714  3.615700  2.014100
0.32844  3.609100  2.009900
0.32975  3.604600  2.007800
0.33107  3.599800  2.007000
0.33240  3.597500  2.003100
0.33374  3.592000  1.998700
0.33510  3.593200  1.988000
0.33646  3.589600  1.978400
0.33783  3.590100  1.972100
0.33922  3.590300  1.964300
0.34062  3.591800  1.959800
0.34203  3.594000  1.956500
0.34345  3.595300  1.955400
0.34488  3.594900  1.956300
0.34633  3.595100  1.955500
0.34778  3.595000  1.955300
0.34925  3.595500  1.955400
0.35074  3.597700  1.957500
0.35223  3.599600  1.958900
0.35374  3.602000  1.961500
0.35526  3.606000  1.962100
0.35679  3.607600  1.965000
0.35834  3.609500  1.967500
0.35990  3.612300  1.967200
0.36147  3.614800  1.968300
0.36306  3.618400  1.969400
0.36466  3.623700  1.970900
0.36628  3.630500  1.973900
0.36791  3.635900  1.976600
0.36955  3.644300  1.979600
0.37121  3.652300  1.982300
0.37289  3.659400  1.986400
0.37458  3.667800  1.990200
0.37628  3.676900  1.992800
0.37800  3.685900  1.996700
0.37974  3.696800  2.001300
0.38149  3.708600  2.007200
0.38326  3.722200  2.011700
0.38505  3.734900  2.017900
0.38685  3.750000  2.022200
0.38867  3.765600  2.026900
0.39050  3.782500  2.031100
0.39236  3.800700  2.035300
0.39423  3.820300  2.039000
0.39612  3.840500  2.044100
0.39803  3.863400  2.049300
0.39995  3.888000  2.054500
0.40190  3.914800  2.057500
0.40386  3.942300  2.061600
0.40584  3.972200  2.064600
0.40785  4.003200  2.067400
0.40987  4.036100  2.067600
0.41191  4.070400  2.066400
0.41397  4.105200  2.062000
0.41606  4.141700  2.055700
0.41816  4.179600  2.043900
0.42029  4.217800  2.029700
0.42244  4.256100  2.012700
0.42461  4.295300  1.994000
0.42680  4.333600  1.971800
0.42901  4.369900  1.948900
0.43125  4.404300  1.923300
0.43351  4.436500  1.898400
0.43580  4.467200  1.871500
0.43811  4.499000  1.845100
0.44044  4.532300  1.817900
0.44280  4.564600  1.791100
0.44519  4.598500  1.763000
0.44760  4.636400  1.732000
0.45004  4.674300  1.696900
0.45250  4.711800  1.657100
0.45499  4.749400  1.611800
0.45751  4.785600  1.559600
0.46006  4.817400  1.501900
0.46263  4.844100  1.439300
0.46524  4.864400  1.373600
0.46787  4.875600  1.306600
0.47053  4.880000  1.238900
0.47323  4.879100  1.173000
0.47595  4.870100  1.108600
0.47871  4.854900  1.047000
0.48150  4.836300  0.988430
0.48432  4.812400  0.934080
0.48717  4.786300  0.884470
0.49006  4.758100  0.838690
0.49298  4.730700  0.797090
0.49594  4.703600  0.757790
0.49893  4.676400  0.721170
0.50196  4.648300  0.690390
0.50503  4.620700  0.657800
0.50814  4.593200  0.631200
0.51128  4.565900  0.606060
0.51446  4.539500  0.581380
0.51768  4.514000  0.558470
0.52095  4.489200  0.537000
0.52425  4.465200  0.516360
0.52760  4.441900  0.497520
0.53099  4.418800  0.480700
0.53442  4.395900  0.468680
0.53790  4.374600  0.453090
0.54142  4.354300  0.441350
0.54499  4.335100  0.428830
0.54861  4.316300  0.415750
0.55227  4.297500  0.403090
0.55599  4.279800  0.390960
0.55975  4.261600  0.380450
0.56357  4.244400  0.370940
0.56744  4.227900  0.361390
0.57136  4.212000  0.353670
0.57534  4.195600  0.344020
0.57937  4.179800  0.337470
0.58346  4.164500  0.330300
0.58761  4.148300  0.324420
0.59181  4.132100  0.317790
0.59608  4.117400  0.311350
0.60041  4.102700  0.304440
0.60481  4.088900  0.296210
0.60926  4.075200  0.289600
0.61379  4.062300  0.283570
0.61838  4.049000  0.277410
0.62304  4.036300  0.273450
0.62777  4.024200  0.267010
0.63258  4.012600  0.260830
0.63746  4.000400  0.254480
0.64241  3.989900  0.249710
0.64744  3.978800  0.244220
0.65255  3.967400  0.241420
0.65775  3.956700  0.237180
0.66302  3.946600  0.233820
0.66838  3.937700  0.229830
0.67383  3.927900  0.230320
0.67937  3.918700  0.225580
0.68500  3.910700  0.218810
0.69073  3.902300  0.214840
0.69655  3.894500  0.211630
0.70247  3.886300  0.212800
0.70849  3.878000  0.213340
0.71461  3.870000  0.209640
0.72084  3.862300  0.206210
0.72719  3.854800  0.204850
0.73364  3.847100  0.203070
0.74021  3.840900  0.200030
0.74690  3.834900  0.189030
0.75371  3.830100  0.184580
0.76065  3.823400  0.184290
0.76771  3.817900  0.183790
0.77491  3.811600  0.178460
0.78224  3.805500  0.172380
0.78971  3.799600  0.167370
0.79733  3.792700  0.165540
0.80510  3.786600  0.164760
0.81302  3.779700  0.163030
0.82109  3.772900  0.144900
0.82933  3.766400  0.138820
0.83774  3.759500  0.135750
0.84632  3.753200  0.130130
0.85507  3.746600  0.121800
0.86401  3.740400  0.117590
0.87314  3.733900  0.116380
0.88246  3.728300  0.120990
0.89198  3.722900  0.128480
0.90171  3.717000  0.133620
0.91166  3.713200  0.126090
0.92182  3.708100  0.128730
0.93222  3.704600  0.132570
0.94285  3.701800  0.121340
0.95373  3.697000  0.119800
0.96487  3.692200  0.118270
0.97626  3.687500  0.116780
0.98793  3.682800  0.115320
0.99988  3.678300  0.113890
