; From SOPRA S.A. http://www.sopra-sa.com/indices.htm
; Filename    Symbol               Range (nm)     Description
; GAAS041T    GaAs                275      999    Gallium Arsenide (Temp: 41 C)
; lambda/um       n         k
0.27583  3.954800  2.979400
0.27675  3.992100  2.936100
0.27768  4.025100  2.905300
0.27862  4.042200  2.849500
0.27956  4.046200  2.787800
0.28051  4.046400  2.727000
0.28146  4.035700  2.673300
0.28243  4.040500  2.614800
0.28339  4.025600  2.576300
0.28437  4.007500  2.526700
0.28535  3.990400  2.486600
0.28634  3.983300  2.438400
0.28734  3.963700  2.391600
0.28834  3.950500  2.341600
0.28935  3.934700  2.299000
0.29036  3.926800  2.267500
0.29139  3.916200  2.244900
0.29242  3.898500  2.227700
0.29346  3.876500  2.202700
0.29450  3.857700  2.177500
0.29555  3.835200  2.159100
0.29662  3.813100  2.136900
0.29768  3.789200  2.114000
0.29876  3.775900  2.101000
0.29984  3.755000  2.083500
0.30093  3.742800  2.072000
0.30203  3.728900  2.057300
0.30314  3.714800  2.044200
0.30426  3.700500  2.026000
0.30538  3.688100  2.014300
0.30651  3.677000  2.003100
0.30766  3.667200  1.990500
0.30880  3.655600  1.983600
0.30996  3.641000  1.979400
0.31113  3.624600  1.973200
0.31231  3.610100  1.970200
0.31349  3.597600  1.968900
0.31468  3.585900  1.967300
0.31589  3.580700  1.964500
0.31710  3.572000  1.965900
0.31832  3.567100  1.968300
0.31955  3.563200  1.972900
0.32079  3.554700  1.973800
0.32204  3.547400  1.968200
0.32330  3.545200  1.964700
0.32457  3.541700  1.960400
0.32585  3.540300  1.964100
0.32714  3.536800  1.963400
0.32844  3.537400  1.965500
0.32975  3.533900  1.964300
0.33107  3.531100  1.960900
0.33240  3.529600  1.957100
0.33374  3.523300  1.956300
0.33510  3.517500  1.956200
0.33646  3.517100  1.957300
0.33783  3.516700  1.962900
0.33922  3.521100  1.969200
0.34062  3.522400  1.973400
0.34203  3.525800  1.981800
0.34345  3.528700  1.988600
0.34488  3.530200  1.991600
0.34633  3.534600  1.995100
0.34778  3.536600  2.006200
0.34925  3.540200  2.013700
0.35074  3.544900  2.020900
0.35223  3.550900  2.029600
0.35374  3.556800  2.038700
0.35526  3.563600  2.048000
0.35679  3.571100  2.056500
0.35834  3.579200  2.065500
0.35990  3.588400  2.075400
0.36147  3.598600  2.086700
0.36306  3.610400  2.097500
0.36466  3.622400  2.108200
0.36628  3.635300  2.120200
0.36791  3.649300  2.133200
0.36955  3.664000  2.145500
0.37121  3.679600  2.158800
0.37289  3.696200  2.172900
0.37458  3.714600  2.187500
0.37628  3.734100  2.204000
0.37800  3.756900  2.220300
0.37974  3.782700  2.239100
0.38149  3.811500  2.260200
0.38326  3.846400  2.282700
0.38505  3.888100  2.305700
0.38685  3.937300  2.327300
0.38867  3.996600  2.344800
0.39050  4.064400  2.356500
0.39236  4.136700  2.356700
0.39423  4.211600  2.344200
0.39612  4.284800  2.317400
0.39803  4.349200  2.281700
0.39995  4.403900  2.236600
0.40190  4.446500  2.188500
0.40386  4.479100  2.143000
0.40584  4.504700  2.102900
0.40785  4.525200  2.068700
0.40987  4.543800  2.044400
0.41191  4.562400  2.029200
0.41397  4.588700  2.023100
0.41606  4.632200  2.023600
0.41816  4.693000  2.026200
0.42029  4.776800  2.018900
0.42244  4.878200  1.989400
0.42461  4.988700  1.928600
0.42680  5.093800  1.835100
0.42901  5.173300  1.711400
0.43125  5.221700  1.570400
0.43351  5.233400  1.431800
0.43580  5.218900  1.304200
0.43811  5.187800  1.193500
0.44044  5.146400  1.101700
0.44280  5.103000  1.024200
0.44519  5.058300  0.957130
0.44760  5.014400  0.899560
0.45004  4.971000  0.849330
0.45250  4.927900  0.802910
0.45499  4.887500  0.759720
0.45751  4.846900  0.723470
0.46006  4.808800  0.688820
0.46263  4.770100  0.659050
0.46524  4.734100  0.630380
0.46787  4.699200  0.605110
0.47053  4.666400  0.581430
0.47323  4.635100  0.559900
0.47595  4.604400  0.538900
0.47871  4.574800  0.519620
0.48150  4.545900  0.501630
0.48432  4.517400  0.485150
0.48717  4.490500  0.469460
0.49006  4.463600  0.455620
0.49298  4.438900  0.440050
0.49594  4.412700  0.427340
0.49893  4.389300  0.412330
0.50196  4.365800  0.400220
0.50503  4.342900  0.387240
0.50814  4.321100  0.377730
0.51128  4.300600  0.366000
0.51446  4.279500  0.357320
0.51768  4.259300  0.348570
0.52095  4.239000  0.341610
0.52425  4.220000  0.331400
0.52760  4.200600  0.323950
0.53099  4.182900  0.315710
0.53442  4.165300  0.308860
0.53790  4.148400  0.302540
0.54142  4.132200  0.297130
0.54499  4.116500  0.291570
0.54861  4.100800  0.288400
0.55227  4.086000  0.282940
0.55599  4.071300  0.278720
0.55975  4.057600  0.271110
0.56357  4.044400  0.266210
0.56744  4.031600  0.262080
0.57136  4.019000  0.255830
0.57534  4.006900  0.251290
0.57937  3.994500  0.245540
0.58346  3.982600  0.242520
0.58761  3.970800  0.237590
0.59181  3.958500  0.233100
0.59608  3.946600  0.230230
0.60041  3.935200  0.225270
0.60481  3.924500  0.221340
0.60926  3.914200  0.217850
0.61379  3.904200  0.213680
0.61838  3.894700  0.209730
0.62304  3.885100  0.204770
0.62777  3.876100  0.202570
0.63258  3.867100  0.199580
0.63746  3.858300  0.197240
0.64241  3.850200  0.194300
0.64744  3.842100  0.192320
0.65255  3.834800  0.188890
0.65775  3.827700  0.185740
0.66302  3.820300  0.182480
0.66838  3.813700  0.177990
0.67383  3.807700  0.171880
0.67937  3.801400  0.167900
0.68500  3.796400  0.163510
0.69073  3.791400  0.160930
0.69655  3.786400  0.155310
0.70247  3.780100  0.150860
0.70849  3.773200  0.144900
0.71461  3.765200  0.138730
0.72084  3.757300  0.134230
0.72719  3.748300  0.126520
0.73364  3.739900  0.119170
0.74021  3.731500  0.112100
0.74690  3.724400  0.109580
0.75371  3.716500  0.109010
0.76065  3.710600  0.108320
0.76771  3.704800  0.109750
0.77491  3.697300  0.107280
0.78224  3.690800  0.104590
0.78971  3.684100  0.102420
0.79733  3.681700  0.099509
0.80510  3.675600  0.091526
0.81302  3.670000  0.080235
0.82109  3.664100  0.072192
0.82933  3.660300  0.067955
0.83774  3.658400  0.070320
0.84632  3.657300  0.069111
0.85507  3.657900  0.058148
0.86401  3.656200  0.055309
0.87314  3.650700  0.058274
0.88246  3.641900  0.067080
0.89198  3.627300  0.072974
0.90171  3.608200  0.082298
0.91166  3.587100  0.097421
0.92182  3.569600  0.112820
0.93222  3.557600  0.133030
0.94285  3.545700  0.139380
0.95373  3.540400  0.136620
0.96487  3.535200  0.133930
0.97626  3.530200  0.131280
0.98793  3.525200  0.128700
0.99988  3.520500  0.126170
