; From SOPRA S.A. http://www.sopra-sa.com/indices.htm
; Filename    Symbol               Range (nm)     Description
; GAAS100     GaAs                234      840    Gallium Arsenide (100)
; lambda/um       n         k
0.23400  1.696200  3.448200
0.23600  1.663900  3.535700
0.23800  1.721900  3.655300
0.24000  1.789800  3.762900
0.24200  1.911700  3.916300
0.24400  2.062900  4.051600
0.24600  2.262700  4.163400
0.24800  2.498300  4.239700
0.25000  2.776300  4.269400
0.25200  3.030500  4.224700
0.25400  3.254800  4.119700
0.25600  3.443900  3.989400
0.25800  3.599200  3.851100
0.26000  3.729600  3.717400
0.26200  3.799000  3.574600
0.26400  3.868500  3.451100
0.26600  3.929000  3.337200
0.26800  3.979300  3.223900
0.27000  4.014400  3.120200
0.27200  4.055200  3.023800
0.27400  4.096700  2.928400
0.27600  4.129600  2.830600
0.27800  4.174300  2.700800
0.28000  4.177900  2.582600
0.28200  4.163900  2.464100
0.28400  4.134400  2.360900
0.28600  4.096400  2.274200
0.28800  4.056100  2.198200
0.29000  4.023300  2.133200
0.29200  3.978700  2.078200
0.29400  3.930800  2.037600
0.29600  3.893200  2.000700
0.29800  3.850500  1.971500
0.30000  3.817200  1.946500
0.30200  3.784100  1.927600
0.30400  3.748700  1.913400
0.30600  3.720700  1.902700
0.30800  3.695300  1.893500
0.31000  3.675300  1.886700
0.31200  3.655600  1.879900
0.31400  3.641900  1.874400
0.31600  3.623100  1.876800
0.31800  3.613500  1.871400
0.32000  3.598400  1.874200
0.32200  3.590700  1.874500
0.32400  3.584200  1.877100
0.32600  3.573000  1.880600
0.32800  3.568900  1.886300
0.33000  3.563800  1.890100
0.33200  3.564300  1.893300
0.33400  3.565600  1.896900
0.33600  3.561700  1.904500
0.33800  3.564600  1.909300
0.34000  3.566000  1.918800
0.34200  3.570000  1.924100
0.34400  3.574700  1.932700
0.34600  3.576800  1.944300
0.34800  3.583600  1.954300
0.35000  3.592300  1.961000
0.35200  3.599000  1.973900
0.35400  3.607500  1.985300
0.35600  3.617100  1.995400
0.35800  3.629800  2.007200
0.36000  3.641800  2.018800
0.36200  3.657700  2.030300
0.36400  3.672500  2.044900
0.36600  3.690900  2.055900
0.36800  3.709100  2.070700
0.37000  3.727100  2.087400
0.37200  3.747500  2.103500
0.37400  3.775600  2.116300
0.37600  3.796300  2.134200
0.37800  3.823500  2.153600
0.38000  3.856200  2.176200
0.38200  3.895800  2.197700
0.38400  3.936300  2.222500
0.38600  3.988100  2.241800
0.38800  4.049600  2.253400
0.39000  4.124100  2.261900
0.39200  4.207600  2.254000
0.39400  4.287000  2.231400
0.39600  4.359900  2.185600
0.39800  4.416500  2.136200
0.40000  4.459100  2.080800
0.40200  4.487800  2.030300
0.40400  4.508900  1.988600
0.40600  4.526600  1.951300
0.40800  4.542300  1.922700
0.41000  4.556500  1.901900
0.41200  4.577200  1.886000
0.41400  4.601700  1.878600
0.41600  4.633200  1.882100
0.41800  4.684500  1.886800
0.42000  4.755400  1.887400
0.42200  4.848700  1.867800
0.42400  4.948500  1.814900
0.42600  5.079900  1.675200
0.42800  5.125800  1.561800
0.43000  5.151500  1.437800
0.43200  5.152200  1.323100
0.43400  5.134800  1.224600
0.43600  5.109800  1.134700
0.43800  5.072800  1.056500
0.44000  5.040700  0.990100
0.44200  5.001700  0.927700
0.44400  4.961800  0.876900
0.44600  4.923700  0.829300
0.44800  4.884400  0.788100
0.45000  4.858100  0.754600
0.45200  4.825647  0.721791
0.45400  4.793664  0.692043
0.45600  4.762317  0.664981
0.45800  4.731773  0.640226
0.46000  4.702200  0.617400
0.46200  4.673768  0.595695
0.46400  4.646632  0.575658
0.46600  4.621256  0.557678
0.46800  4.597497  0.541595
0.47000  4.574600  0.526700
0.47200  4.551577  0.512103
0.47400  4.529142  0.498342
0.47600  4.507604  0.485678
0.47800  4.487000  0.474015
0.48000  4.467100  0.462900
0.48200  4.447746  0.451609
0.48400  4.428975  0.440827
0.48600  4.410578  0.431004
0.48800  4.392713  0.422164
0.49000  4.375900  0.413900
0.49200  4.361179  0.405919
0.49400  4.347390  0.398246
0.49600  4.333930  0.390729
0.49800  4.320479  0.383366
0.50000  4.307000  0.376300
0.50200  4.292815  0.369709
0.50400  4.278811  0.363434
0.50600  4.265704  0.357384
0.50800  4.253560  0.351548
0.51000  4.241800  0.346000
0.51200  4.229848  0.340862
0.51400  4.218134  0.335973
0.51600  4.206775  0.331238
0.51800  4.195870  0.326611
0.52000  4.185500  0.322100
0.52200  4.175994  0.317662
0.52400  4.166927  0.313327
0.52600  4.158144  0.309133
0.52800  4.149429  0.305054
0.53000  4.140500  0.301000
0.53200  4.130423  0.296724
0.53400  4.120414  0.292576
0.53600  4.111463  0.288854
0.53800  4.103642  0.285579
0.54000  4.096100  0.282500
0.54200  4.087947  0.279417
0.54400  4.079862  0.276394
0.54600  4.072173  0.273391
0.54800  4.064909  0.270410
0.55000  4.057800  0.267500
0.55200  4.050538  0.264702
0.55400  4.043396  0.262007
0.55600  4.036525  0.259456
0.55800  4.029953  0.257020
0.56000  4.023600  0.254600
0.56200  4.017517  0.251981
0.56400  4.011510  0.249422
0.56600  4.005398  0.247171
0.56800  3.999133  0.245198
0.57000  3.992800  0.243200
0.57200  3.986492  0.240730
0.57400  3.980072  0.238221
0.57600  3.973290  0.235933
0.57800  3.966269  0.233914
0.58000  3.959500  0.232000
0.58200  3.953627  0.230112
0.58400  3.948237  0.228240
0.58600  3.943286  0.226314
0.58800  3.938665  0.224339
0.59000  3.934200  0.222400
0.59200  3.929572  0.220597
0.59400  3.925024  0.218854
0.59600  3.920754  0.217128
0.59800  3.916693  0.215424
0.60000  3.912500  0.213800
0.60200  3.907506  0.212389
0.60400  3.902503  0.211006
0.60600  3.898073  0.209496
0.60800  3.894286  0.207848
0.61000  3.890700  0.206200
0.61200  3.886895  0.204694
0.61400  3.883190  0.203227
0.61600  3.879772  0.201773
0.61800  3.876620  0.200306
0.62000  3.873500  0.198800
0.62200  3.870469  0.197158
0.62400  3.867002  0.195509
0.62600  3.862154  0.193937
0.62800  3.856191  0.192474
0.63000  3.850600  0.191100
0.63200  3.847377  0.189878
0.63400  3.844998  0.188695
0.63600  3.842988  0.187438
0.63800  3.841016  0.186105
0.64000  3.838900  0.184800
0.64200  3.835964  0.183738
0.64400  3.832852  0.182621
0.64600  3.830028  0.181152
0.64800  3.827476  0.179360
0.65000  3.824700  0.177600
0.65200  3.820873  0.176338
0.65400  3.816962  0.175179
0.65600  3.813622  0.173908
0.65800  3.810991  0.172496
0.66000  3.808700  0.171100
0.66200  3.806627  0.169902
0.66400  3.804670  0.168713
0.66600  3.802658  0.167377
0.66800  3.800543  0.165910
0.67000  3.798400  0.164500
0.67200  3.796280  0.163441
0.67400  3.794112  0.162426
0.67600  3.791736  0.161278
0.67800  3.789248  0.159943
0.68000  3.787000  0.158500
0.68200  3.785670  0.156927
0.68400  3.784509  0.155310
0.68600  3.782980  0.153705
0.68800  3.781032  0.152158
0.69000  3.779100  0.150700
0.69200  3.777729  0.149667
0.69400  3.776354  0.148462
0.69600  3.774567  0.146462
0.69800  3.772354  0.143689
0.70000  3.770100  0.140800
0.70200  3.768348  0.138449
0.70400  3.766516  0.136302
0.70600  3.764265  0.134367
0.70800  3.761486  0.132598
0.71000  3.758300  0.130900
0.71200  3.754289  0.129090
0.71400  3.750370  0.127337
0.71600  3.747486  0.125744
0.71800  3.745679  0.124324
0.72000  3.744100  0.123000
0.72200  3.741897  0.121757
0.72400  3.739627  0.120526
0.72600  3.737490  0.119178
0.72800  3.735505  0.117739
0.73000  3.733500  0.116400
0.73200  3.731360  0.115476
0.73400  3.729092  0.114632
0.73600  3.726565  0.113650
0.73800  3.723846  0.112493
0.74000  3.721200  0.111300
0.74200  3.718968  0.110073
0.74400  3.716944  0.108970
0.74600  3.715061  0.108268
0.74800  3.713322  0.107908
0.75000  3.711800  0.107500
0.75200  3.710882  0.106389
0.75400  3.709861  0.105274
0.75600  3.708008  0.104765
0.75800  3.705336  0.104790
0.76000  3.702600  0.104600
0.76200  3.700705  0.102980
0.76400  3.698918  0.101248
0.76600  3.696793  0.100431
0.76800  3.694354  0.100526
0.77000  3.692100  0.100500
0.77200  3.690754  0.099016
0.77400  3.689593  0.097308
0.77600  3.688077  0.096058
0.77800  3.686222  0.095415
0.78000  3.684600  0.095000
0.78200  3.684094  0.094714
0.78400  3.683739  0.094405
0.78600  3.682792  0.093859
0.78800  3.681240  0.093022
0.79000  3.679800  0.092000
0.79200  3.679227  0.090599
0.79400  3.679009  0.089314
0.79600  3.679281  0.088748
0.79800  3.679691  0.088848
0.80000  3.679400  0.088900
0.80200  3.676536  0.088156
0.80400  3.673240  0.087012
0.80600  3.670929  0.085218
0.80800  3.669915  0.083089
0.81000  3.669400  0.081500
0.81200  3.669348  0.082268
0.81400  3.669072  0.083372
0.81600  3.667484  0.083455
0.81800  3.664712  0.082274
0.82000  3.662100  0.080700
0.82200  3.661314  0.079191
0.82400  3.661097  0.077750
0.82600  3.660893  0.076756
0.82800  3.660605  0.076124
0.83000  3.660600  0.075300
0.83200  3.662388  0.073023
0.83400  3.663152  0.070990
0.83600  3.661452  0.069954
0.83800  3.655848  0.070673
0.84000  3.644900  0.073900
