; From SOPRA S.A. http://www.sopra-sa.com/indices.htm
; Filename    Symbol               Range (nm)     Description
; GAAS603T    GaAs                275      999    Gallium Arsenide (Temp: 603 C)
; lambda/um       n         k
0.27583  3.250800  3.282300
0.27675  3.288700  3.256500
0.27768  3.333500  3.229000
0.27862  3.371600  3.203000
0.27956  3.417000  3.179600
0.28051  3.454200  3.147700
0.28146  3.479700  3.104900
0.28243  3.506500  3.072000
0.28339  3.526600  3.043300
0.28437  3.546300  3.016100
0.28535  3.564300  2.982600
0.28634  3.577100  2.946100
0.28734  3.599900  2.911900
0.28834  3.622100  2.876600
0.28935  3.645700  2.837600
0.29036  3.664200  2.790500
0.29139  3.682100  2.746000
0.29242  3.695800  2.714000
0.29346  3.703600  2.680700
0.29450  3.710700  2.651900
0.29555  3.715000  2.619500
0.29662  3.714500  2.591000
0.29768  3.717300  2.565800
0.29876  3.722100  2.534800
0.29984  3.725700  2.502300
0.30093  3.726100  2.472200
0.30203  3.726000  2.444100
0.30314  3.725600  2.417800
0.30426  3.722500  2.389900
0.30538  3.720900  2.364700
0.30651  3.718100  2.339400
0.30766  3.718200  2.318000
0.30880  3.716500  2.298200
0.30996  3.717200  2.276400
0.31113  3.713000  2.258600
0.31231  3.706800  2.241700
0.31349  3.700600  2.223500
0.31468  3.692800  2.208600
0.31589  3.685600  2.192600
0.31710  3.683000  2.175700
0.31832  3.679000  2.158700
0.31955  3.677200  2.144600
0.32079  3.675800  2.131100
0.32204  3.675000  2.118900
0.32330  3.669300  2.109400
0.32457  3.665400  2.097800
0.32585  3.659700  2.088500
0.32714  3.652700  2.080900
0.32844  3.648200  2.071600
0.32975  3.643600  2.063700
0.33107  3.639900  2.054500
0.33240  3.636900  2.045500
0.33374  3.637200  2.036600
0.33510  3.638800  2.026400
0.33646  3.640500  2.015700
0.33783  3.641000  2.003400
0.33922  3.641400  1.993300
0.34062  3.641200  1.983400
0.34203  3.639700  1.976800
0.34345  3.636800  1.974400
0.34488  3.635300  1.970500
0.34633  3.633600  1.967700
0.34778  3.632600  1.966600
0.34925  3.633000  1.964000
0.35074  3.633600  1.961800
0.35223  3.633000  1.959500
0.35374  3.633500  1.957700
0.35526  3.634200  1.956000
0.35679  3.635800  1.955000
0.35834  3.638000  1.953500
0.35990  3.640100  1.951000
0.36147  3.643700  1.948400
0.36306  3.647100  1.947500
0.36466  3.651100  1.946000
0.36628  3.655600  1.945000
0.36791  3.659600  1.945900
0.36955  3.664600  1.946700
0.37121  3.669200  1.948100
0.37289  3.674800  1.949800
0.37458  3.680900  1.950500
0.37628  3.686700  1.951500
0.37800  3.694500  1.952300
0.37974  3.701200  1.954200
0.38149  3.708500  1.955300
0.38326  3.717100  1.956700
0.38505  3.726100  1.959100
0.38685  3.736200  1.960200
0.38867  3.746400  1.962300
0.39050  3.757300  1.965500
0.39236  3.769300  1.966900
0.39423  3.781100  1.969600
0.39612  3.794400  1.971600
0.39803  3.808000  1.973900
0.39995  3.823300  1.974200
0.40190  3.839800  1.975300
0.40386  3.858100  1.976200
0.40584  3.876700  1.976500
0.40785  3.896700  1.977000
0.40987  3.917600  1.977900
0.41191  3.938800  1.977100
0.41397  3.960400  1.976600
0.41606  3.983800  1.975200
0.41816  4.008000  1.974000
0.42029  4.033000  1.971200
0.42244  4.059600  1.967800
0.42461  4.087500  1.963800
0.42680  4.115800  1.958300
0.42901  4.145900  1.951400
0.43125  4.177100  1.941900
0.43351  4.207900  1.929400
0.43580  4.239100  1.914400
0.43811  4.271600  1.897700
0.44044  4.303000  1.879200
0.44280  4.333600  1.859400
0.44519  4.363400  1.837600
0.44760  4.392600  1.815700
0.45004  4.420600  1.792700
0.45250  4.449200  1.768600
0.45499  4.476900  1.743200
0.45751  4.504500  1.716500
0.46006  4.532200  1.688400
0.46263  4.560600  1.659000
0.46524  4.588300  1.628100
0.46787  4.615500  1.594800
0.47053  4.642800  1.558300
0.47323  4.669700  1.519100
0.47595  4.694800  1.476300
0.47871  4.717200  1.430000
0.48150  4.736500  1.380200
0.48432  4.753000  1.327300
0.48717  4.764700  1.272400
0.49006  4.771200  1.216500
0.49298  4.773100  1.160400
0.49594  4.769400  1.104300
0.49893  4.762200  1.049000
0.50196  4.750900  0.996100
0.50503  4.736100  0.945200
0.50814  4.718400  0.898480
0.51128  4.698800  0.854750
0.51446  4.678400  0.813730
0.51768  4.657800  0.775990
0.52095  4.636500  0.740500
0.52425  4.614900  0.707790
0.52760  4.592800  0.677530
0.53099  4.570100  0.649990
0.53442  4.547900  0.623670
0.53790  4.525600  0.599250
0.54142  4.503600  0.577270
0.54499  4.481700  0.557190
0.54861  4.460500  0.538260
0.55227  4.440300  0.519900
0.55599  4.420500  0.502090
0.55975  4.401500  0.484720
0.56357  4.383100  0.468750
0.56744  4.364900  0.453680
0.57136  4.347000  0.439350
0.57534  4.328800  0.425530
0.57937  4.311400  0.413010
0.58346  4.294200  0.400380
0.58761  4.275900  0.389190
0.59181  4.258000  0.378150
0.59608  4.240500  0.367390
0.60041  4.223800  0.356380
0.60481  4.207300  0.346510
0.60926  4.192000  0.337650
0.61379  4.176100  0.329870
0.61838  4.161100  0.322000
0.62304  4.147300  0.315270
0.62777  4.133200  0.309220
0.63258  4.118200  0.304590
0.63746  4.104300  0.298300
0.64241  4.091300  0.289980
0.64744  4.078600  0.282340
0.65255  4.066400  0.274600
0.65775  4.055100  0.267530
0.66302  4.043900  0.260030
0.66838  4.033200  0.254950
0.67383  4.023200  0.249870
0.67937  4.012700  0.247210
0.68500  4.001100  0.245310
0.69073  3.989800  0.241580
0.69655  3.979100  0.237010
0.70247  3.968300  0.234720
0.70849  3.958400  0.231870
0.71461  3.948700  0.225180
0.72084  3.939900  0.218960
0.72719  3.930600  0.214490
0.73364  3.922800  0.209100
0.74021  3.915600  0.203770
0.74690  3.908400  0.201030
0.75371  3.902500  0.196600
0.76065  3.895200  0.193550
0.76771  3.887700  0.193440
0.77491  3.880400  0.189450
0.78224  3.872300  0.186330
0.78971  3.864500  0.183410
0.79733  3.856900  0.179660
0.80510  3.850700  0.176020
0.81302  3.844900  0.170780
0.82109  3.839500  0.164170
0.82933  3.833300  0.159230
0.83774  3.826500  0.154740
0.84632  3.820500  0.151480
0.85507  3.814500  0.145980
0.86401  3.808100  0.143700
0.87314  3.802100  0.140650
0.88246  3.796600  0.138400
0.89198  3.791200  0.137810
0.90171  3.784800  0.133830
0.91166  3.778800  0.130120
0.92182  3.771300  0.128950
0.93222  3.764500  0.126300
0.94285  3.759700  0.126440
0.95373  3.754400  0.124380
0.96487  3.749200  0.122360
0.97626  3.744200  0.120370
0.98793  3.739200  0.118430
0.99988  3.734400  0.116510
