; From SOPRA S.A. http://www.sopra-sa.com/indices.htm
; Filename    Symbol               Range (nm)     Description
; GAAS126T    GaAs                275      999    Gallium Arsenide (Temp: 126 C)
; lambda/um       n         k
0.27583  3.850100  3.060000
0.27675  3.875400  3.030500
0.27768  3.903100  2.984500
0.27862  3.927500  2.929700
0.27956  3.943400  2.890000
0.28051  3.958300  2.836800
0.28146  3.969000  2.779500
0.28243  3.983800  2.717700
0.28339  3.986900  2.662100
0.28437  3.984200  2.622000
0.28535  3.979900  2.574300
0.28634  3.970600  2.530600
0.28734  3.952200  2.487700
0.28834  3.934200  2.438600
0.28935  3.920000  2.402400
0.29036  3.907900  2.355100
0.29139  3.896500  2.319300
0.29242  3.891100  2.287800
0.29346  3.878800  2.264200
0.29450  3.870500  2.248300
0.29555  3.854000  2.225500
0.29662  3.837600  2.206200
0.29768  3.821300  2.189300
0.29876  3.805600  2.167300
0.29984  3.791800  2.145700
0.30093  3.776700  2.122000
0.30203  3.758100  2.101800
0.30314  3.743500  2.082400
0.30426  3.728200  2.068900
0.30538  3.715100  2.055900
0.30651  3.696500  2.042900
0.30766  3.683000  2.033000
0.30880  3.671100  2.025400
0.30996  3.660600  2.016700
0.31113  3.651400  2.009000
0.31231  3.640800  2.001800
0.31349  3.633300  1.995600
0.31468  3.625700  1.995600
0.31589  3.615600  1.994000
0.31710  3.608700  1.989000
0.31832  3.599300  1.986600
0.31955  3.593600  1.981600
0.32079  3.583600  1.978800
0.32204  3.574800  1.974000
0.32330  3.565100  1.967700
0.32457  3.560700  1.962500
0.32585  3.555700  1.961500
0.32714  3.546400  1.963300
0.32844  3.540900  1.961400
0.32975  3.539200  1.956100
0.33107  3.542000  1.956000
0.33240  3.540800  1.956300
0.33374  3.535200  1.965000
0.33510  3.534800  1.970000
0.33646  3.535100  1.974500
0.33783  3.539300  1.978600
0.33922  3.537900  1.983100
0.34062  3.536500  1.985100
0.34203  3.538000  1.983700
0.34345  3.540200  1.979000
0.34488  3.546700  1.978700
0.34633  3.546800  1.980900
0.34778  3.548500  1.989300
0.34925  3.551200  1.995200
0.35074  3.554400  2.001000
0.35223  3.560000  2.007500
0.35374  3.566100  2.013800
0.35526  3.570700  2.020900
0.35679  3.575800  2.028100
0.35834  3.582700  2.035800
0.35990  3.590200  2.042600
0.36147  3.597600  2.051300
0.36306  3.607000  2.059500
0.36466  3.615700  2.067900
0.36628  3.624900  2.075400
0.36791  3.637200  2.083000
0.36955  3.650200  2.090600
0.37121  3.663100  2.099900
0.37289  3.679200  2.109700
0.37458  3.696100  2.119900
0.37628  3.713600  2.131300
0.37800  3.731600  2.144400
0.37974  3.753300  2.158000
0.38149  3.775200  2.173500
0.38326  3.798700  2.187700
0.38505  3.827100  2.202200
0.38685  3.858700  2.216900
0.38867  3.894200  2.232000
0.39050  3.935300  2.246600
0.39236  3.979800  2.259200
0.39423  4.030600  2.269600
0.39612  4.087300  2.273600
0.39803  4.150100  2.270700
0.39995  4.213100  2.258800
0.40190  4.273300  2.235600
0.40386  4.330300  2.203900
0.40584  4.379800  2.167500
0.40785  4.421300  2.129800
0.40987  4.455800  2.093700
0.41191  4.485000  2.059800
0.41397  4.511100  2.029200
0.41606  4.536700  2.004500
0.41816  4.565300  1.985300
0.42029  4.599500  1.970500
0.42244  4.641400  1.958600
0.42461  4.696900  1.944700
0.42680  4.764700  1.924000
0.42901  4.844100  1.887200
0.43125  4.928600  1.829000
0.43351  5.006800  1.748400
0.43580  5.070100  1.647700
0.43811  5.110300  1.535100
0.44044  5.128900  1.419000
0.44280  5.125200  1.309400
0.44519  5.106900  1.210500
0.44760  5.078700  1.124000
0.45004  5.046100  1.048700
0.45250  5.009900  0.979990
0.45499  4.972700  0.919710
0.45751  4.934500  0.866380
0.46006  4.895900  0.818680
0.46263  4.856500  0.775210
0.46524  4.818800  0.737220
0.46787  4.782900  0.701850
0.47053  4.748200  0.668630
0.47323  4.713900  0.641890
0.47595  4.681600  0.616290
0.47871  4.649100  0.591980
0.48150  4.618500  0.568320
0.48432  4.587900  0.546600
0.48717  4.558600  0.526560
0.49006  4.530700  0.506330
0.49298  4.503800  0.488340
0.49594  4.476700  0.471760
0.49893  4.450000  0.456680
0.50196  4.424300  0.444440
0.50503  4.399500  0.431640
0.50814  4.374700  0.419760
0.51128  4.350700  0.408240
0.51446  4.327600  0.396200
0.51768  4.305600  0.386100
0.52095  4.285000  0.373430
0.52425  4.266200  0.362500
0.52760  4.246400  0.353220
0.53099  4.227900  0.343930
0.53442  4.210200  0.335040
0.53790  4.193000  0.325950
0.54142  4.175900  0.318640
0.54499  4.159500  0.312210
0.54861  4.142900  0.305860
0.55227  4.126700  0.301650
0.55599  4.111200  0.296200
0.55975  4.097000  0.290250
0.56357  4.082100  0.284660
0.56744  4.067700  0.279130
0.57136  4.054200  0.272790
0.57534  4.040700  0.267160
0.57937  4.028000  0.262550
0.58346  4.015400  0.258260
0.58761  4.002700  0.252640
0.59181  3.990400  0.248600
0.59608  3.978200  0.244990
0.60041  3.966500  0.239880
0.60481  3.954800  0.235350
0.60926  3.943700  0.230670
0.61379  3.933000  0.225630
0.61838  3.922100  0.222580
0.62304  3.911900  0.219200
0.62777  3.901300  0.216830
0.63258  3.891600  0.213620
0.63746  3.881800  0.212550
0.64241  3.873100  0.208860
0.64744  3.864300  0.206190
0.65255  3.856200  0.202060
0.65775  3.848400  0.198590
0.66302  3.841100  0.195500
0.66838  3.834100  0.192760
0.67383  3.827500  0.188620
0.67937  3.820500  0.183300
0.68500  3.814800  0.182800
0.69073  3.808800  0.180770
0.69655  3.802900  0.176410
0.70247  3.797200  0.173740
0.70849  3.792100  0.169980
0.71461  3.785900  0.168120
0.72084  3.779600  0.163590
0.72719  3.771900  0.156430
0.73364  3.764300  0.147260
0.74021  3.756300  0.141420
0.74690  3.747000  0.137500
0.75371  3.739600  0.129250
0.76065  3.732300  0.123140
0.76771  3.725800  0.119080
0.77491  3.719700  0.121340
0.78224  3.713800  0.122690
0.78971  3.707900  0.122060
0.79733  3.701400  0.117710
0.80510  3.695200  0.116920
0.81302  3.688400  0.116140
0.82109  3.683400  0.111180
0.82933  3.682300  0.111080
0.83774  3.678700  0.104650
0.84632  3.674700  0.100100
0.85507  3.671300  0.098061
0.86401  3.670500  0.096039
0.87314  3.667500  0.086891
0.88246  3.666000  0.073638
0.89198  3.661800  0.068130
0.90171  3.657200  0.063412
0.91166  3.646500  0.069733
0.92182  3.630000  0.084771
0.93222  3.613100  0.093643
0.94285  3.593600  0.109580
0.95373  3.589000  0.107370
0.96487  3.584400  0.105200
0.97626  3.579900  0.103050
0.98793  3.574900  0.101370
0.99988  3.571200  0.098867
