; From SOPRA S.A. http://www.sopra-sa.com/indices.htm
; Filename    Symbol               Range (nm)     Description
; GAAS273T    GaAs                275      999    Gallium Arsenide (Temp: 273 C)
; lambda/um       n         k
0.27583  3.701500  3.129000
0.27675  3.723100  3.084200
0.27768  3.749600  3.036300
0.27862  3.772700  3.000700
0.27956  3.795100  2.958500
0.28051  3.825200  2.923800
0.28146  3.839800  2.882300
0.28243  3.861500  2.841800
0.28339  3.868100  2.791100
0.28437  3.879400  2.742800
0.28535  3.884700  2.700300
0.28634  3.877800  2.657500
0.28734  3.869800  2.613600
0.28834  3.866200  2.577100
0.28935  3.862500  2.537400
0.29036  3.858100  2.507800
0.29139  3.852400  2.468400
0.29242  3.852700  2.431400
0.29346  3.849700  2.391600
0.29450  3.847200  2.361400
0.29555  3.840700  2.336000
0.29662  3.832400  2.307600
0.29768  3.824200  2.283900
0.29876  3.815700  2.261300
0.29984  3.805100  2.239100
0.30093  3.793600  2.217000
0.30203  3.779500  2.194100
0.30314  3.766900  2.171000
0.30426  3.757100  2.152900
0.30538  3.744100  2.135100
0.30651  3.730500  2.120500
0.30766  3.722000  2.106600
0.30880  3.715000  2.090900
0.30996  3.706000  2.076600
0.31113  3.694100  2.065100
0.31231  3.683100  2.050400
0.31349  3.674000  2.038400
0.31468  3.664600  2.027700
0.31589  3.660000  2.020900
0.31710  3.648600  2.013800
0.31832  3.642600  2.007800
0.31955  3.637100  2.004100
0.32079  3.630900  1.997000
0.32204  3.624700  1.991600
0.32330  3.616600  1.988600
0.32457  3.608600  1.980900
0.32585  3.599700  1.975000
0.32714  3.590900  1.970800
0.32844  3.584900  1.968900
0.32975  3.575100  1.966600
0.33107  3.572500  1.967100
0.33240  3.566300  1.966100
0.33374  3.567500  1.961500
0.33510  3.571500  1.956500
0.33646  3.574500  1.952500
0.33783  3.575700  1.947500
0.33922  3.575400  1.944300
0.34062  3.577700  1.942700
0.34203  3.577000  1.943100
0.34345  3.576000  1.945800
0.34488  3.578000  1.949800
0.34633  3.576700  1.951400
0.34778  3.579700  1.953300
0.34925  3.581700  1.955800
0.35074  3.583700  1.958200
0.35223  3.586000  1.961800
0.35374  3.588900  1.964700
0.35526  3.592600  1.967500
0.35679  3.596000  1.971700
0.35834  3.601400  1.975900
0.35990  3.606900  1.980100
0.36147  3.612600  1.986000
0.36306  3.618800  1.991000
0.36466  3.625700  1.995200
0.36628  3.632900  1.999100
0.36791  3.640400  2.004800
0.36955  3.649500  2.011100
0.37121  3.659200  2.017600
0.37289  3.670100  2.024300
0.37458  3.681900  2.031600
0.37628  3.694200  2.038200
0.37800  3.707900  2.045700
0.37974  3.723300  2.051700
0.38149  3.739300  2.058300
0.38326  3.756200  2.064300
0.38505  3.773700  2.072200
0.38685  3.793200  2.081100
0.38867  3.815700  2.089400
0.39050  3.839200  2.098300
0.39236  3.863800  2.108800
0.39423  3.890800  2.117100
0.39612  3.921600  2.125500
0.39803  3.955500  2.133500
0.39995  3.993100  2.139500
0.40190  4.034000  2.141400
0.40386  4.076600  2.141800
0.40584  4.122600  2.138600
0.40785  4.170400  2.130200
0.40987  4.217900  2.117700
0.41191  4.264100  2.100900
0.41397  4.307900  2.078600
0.41606  4.350600  2.053100
0.41816  4.389200  2.025200
0.42029  4.425000  1.995400
0.42244  4.457400  1.965400
0.42461  4.487600  1.936900
0.42680  4.517900  1.910300
0.42901  4.549200  1.885900
0.43125  4.584100  1.861300
0.43351  4.623400  1.837100
0.43580  4.666300  1.810300
0.43811  4.716500  1.776800
0.44044  4.770500  1.735500
0.44280  4.824400  1.685800
0.44519  4.874300  1.624300
0.44760  4.918600  1.551100
0.45004  4.950700  1.472100
0.45250  4.971500  1.387600
0.45499  4.980500  1.302500
0.45751  4.977300  1.219700
0.46006  4.964300  1.143200
0.46263  4.946000  1.071600
0.46524  4.922000  1.007100
0.46787  4.893700  0.950480
0.47053  4.863500  0.896770
0.47323  4.831600  0.848510
0.47595  4.799700  0.804940
0.47871  4.768200  0.764050
0.48150  4.736900  0.726930
0.48432  4.704900  0.693020
0.48717  4.674800  0.661840
0.49006  4.645200  0.632490
0.49298  4.615000  0.606220
0.49594  4.584700  0.582070
0.49893  4.555900  0.558530
0.50196  4.527900  0.538010
0.50503  4.501000  0.517350
0.50814  4.474800  0.499240
0.51128  4.449200  0.482400
0.51446  4.424600  0.465930
0.51768  4.400700  0.451080
0.52095  4.378100  0.435750
0.52425  4.355200  0.422370
0.52760  4.333400  0.409020
0.53099  4.312900  0.397030
0.53442  4.293000  0.385400
0.53790  4.273900  0.374540
0.54142  4.255300  0.364460
0.54499  4.237900  0.354410
0.54861  4.221000  0.344460
0.55227  4.204300  0.337280
0.55599  4.188000  0.329150
0.55975  4.171400  0.322590
0.56357  4.155300  0.315820
0.56744  4.139700  0.309540
0.57136  4.123600  0.304130
0.57534  4.108600  0.299380
0.57937  4.093800  0.293470
0.58346  4.080000  0.287860
0.58761  4.066800  0.281180
0.59181  4.053200  0.277100
0.59608  4.040100  0.271060
0.60041  4.027400  0.264690
0.60481  4.014900  0.258910
0.60926  4.002800  0.252570
0.61379  3.990100  0.248150
0.61838  3.979000  0.243560
0.62304  3.967400  0.239470
0.62777  3.956400  0.236120
0.63258  3.945500  0.232260
0.63746  3.935000  0.228920
0.64241  3.925000  0.225790
0.64744  3.915200  0.222370
0.65255  3.905900  0.219810
0.65775  3.897000  0.216630
0.66302  3.888200  0.213660
0.66838  3.880200  0.209920
0.67383  3.871800  0.207520
0.67937  3.864100  0.204040
0.68500  3.856900  0.200850
0.69073  3.850200  0.197780
0.69655  3.842800  0.195270
0.70247  3.835700  0.190980
0.70849  3.828900  0.188380
0.71461  3.822800  0.186730
0.72084  3.816900  0.182320
0.72719  3.810700  0.177610
0.73364  3.804900  0.170360
0.74021  3.799100  0.166160
0.74690  3.794700  0.158760
0.75371  3.789900  0.151960
0.76065  3.783700  0.147140
0.76771  3.777400  0.143170
0.77491  3.770900  0.143730
0.78224  3.762700  0.140160
0.78971  3.754000  0.134590
0.79733  3.745200  0.131910
0.80510  3.736300  0.123960
0.81302  3.729000  0.122370
0.82109  3.725100  0.122200
0.82933  3.720900  0.126760
0.83774  3.714900  0.130770
0.84632  3.708900  0.132000
0.85507  3.702700  0.130960
0.86401  3.698200  0.125920
0.87314  3.693600  0.120410
0.88246  3.688800  0.112770
0.89198  3.686600  0.104730
0.90171  3.683900  0.099807
0.91166  3.686100  0.107500
0.92182  3.682200  0.103780
0.93222  3.678500  0.096070
0.94285  3.672400  0.084327
0.95373  3.668900  0.083524
0.96487  3.665400  0.082820
0.97626  3.661800  0.082125
0.98793  3.658300  0.081456
0.99988  3.654900  0.080807
