; From SOPRA S.A. http://www.sopra-sa.com/indices.htm
; Filename    Symbol               Range (nm)     Description
; GAAS391T    GaAs                275      999    Gallium Arsenide (Temp: 391 C)
; lambda/um       n         k
0.27583  3.581100  3.159400
0.27675  3.599400  3.139100
0.27768  3.628200  3.099600
0.27862  3.642200  3.062800
0.27956  3.657600  3.034300
0.28051  3.688800  3.014600
0.28146  3.699500  2.982600
0.28243  3.720700  2.947100
0.28339  3.731700  2.904200
0.28437  3.765700  2.859400
0.28535  3.778600  2.828400
0.28634  3.792300  2.794800
0.28734  3.808400  2.741600
0.28834  3.814700  2.703100
0.28935  3.822700  2.670800
0.29036  3.829600  2.624300
0.29139  3.831200  2.584300
0.29242  3.833200  2.550000
0.29346  3.821400  2.522000
0.29450  3.813100  2.491300
0.29555  3.796500  2.465200
0.29662  3.790900  2.441000
0.29768  3.789900  2.402900
0.29876  3.782300  2.366800
0.29984  3.770300  2.343700
0.30093  3.760100  2.312500
0.30203  3.758000  2.291300
0.30314  3.754100  2.267500
0.30426  3.749900  2.247000
0.30538  3.741400  2.224500
0.30651  3.736200  2.208000
0.30766  3.726300  2.191000
0.30880  3.722600  2.170000
0.30996  3.711700  2.149700
0.31113  3.698000  2.136000
0.31231  3.684900  2.116000
0.31349  3.684100  2.097700
0.31468  3.678600  2.084600
0.31589  3.673500  2.073400
0.31710  3.668400  2.062700
0.31832  3.660800  2.055700
0.31955  3.651100  2.046600
0.32079  3.649200  2.041200
0.32204  3.639400  2.034500
0.32330  3.636300  2.026100
0.32457  3.628000  2.013500
0.32585  3.626300  2.004800
0.32714  3.618600  1.998500
0.32844  3.611700  1.994600
0.32975  3.605400  1.988100
0.33107  3.598100  1.983300
0.33240  3.590000  1.977500
0.33374  3.587200  1.975300
0.33510  3.581500  1.970700
0.33646  3.581600  1.967400
0.33783  3.579600  1.963300
0.33922  3.580800  1.962500
0.34062  3.584000  1.960700
0.34203  3.586400  1.959400
0.34345  3.589200  1.958400
0.34488  3.592000  1.958900
0.34633  3.593100  1.958800
0.34778  3.595700  1.958400
0.34925  3.595900  1.959100
0.35074  3.594900  1.961300
0.35223  3.595300  1.961100
0.35374  3.597900  1.961900
0.35526  3.599600  1.962400
0.35679  3.600400  1.963200
0.35834  3.603900  1.963300
0.35990  3.608600  1.966400
0.36147  3.612300  1.968400
0.36306  3.618300  1.971900
0.36466  3.622700  1.976100
0.36628  3.628500  1.980300
0.36791  3.635300  1.982800
0.36955  3.643700  1.986900
0.37121  3.652000  1.990200
0.37289  3.661000  1.994300
0.37458  3.671400  1.996700
0.37628  3.681900  2.003400
0.37800  3.691300  2.008700
0.37974  3.703500  2.014500
0.38149  3.714900  2.020500
0.38326  3.727100  2.026200
0.38505  3.739800  2.032000
0.38685  3.754900  2.037500
0.38867  3.770600  2.042700
0.39050  3.788200  2.048400
0.39236  3.806500  2.053100
0.39423  3.826400  2.060700
0.39612  3.848200  2.065900
0.39803  3.873200  2.070700
0.39995  3.899100  2.076800
0.40190  3.926900  2.080200
0.40386  3.957200  2.082700
0.40584  3.989900  2.084200
0.40785  4.023700  2.085400
0.40987  4.059900  2.084600
0.41191  4.097000  2.082100
0.41397  4.135500  2.076800
0.41606  4.175400  2.067000
0.41816  4.215200  2.054600
0.42029  4.253900  2.040400
0.42244  4.292700  2.020600
0.42461  4.330600  1.996700
0.42680  4.366300  1.972100
0.42901  4.401300  1.946000
0.43125  4.435600  1.918800
0.43351  4.467400  1.892500
0.43580  4.498100  1.865700
0.43811  4.531200  1.838300
0.44044  4.565200  1.811600
0.44280  4.600400  1.783700
0.44519  4.638200  1.752400
0.44760  4.677300  1.717900
0.45004  4.716700  1.679700
0.45250  4.757700  1.633500
0.45499  4.796700  1.581900
0.45751  4.831600  1.523100
0.46006  4.860000  1.458500
0.46263  4.882500  1.388700
0.46524  4.896600  1.317000
0.46787  4.901300  1.245400
0.47053  4.898400  1.175800
0.47323  4.888500  1.110700
0.47595  4.871900  1.049600
0.47871  4.852300  0.990000
0.48150  4.829000  0.936900
0.48432  4.802400  0.886220
0.48717  4.775500  0.840400
0.49006  4.746200  0.797950
0.49298  4.717600  0.758020
0.49594  4.687700  0.721900
0.49893  4.659000  0.688400
0.50196  4.630800  0.658520
0.50503  4.602400  0.631140
0.50814  4.574600  0.604370
0.51128  4.547500  0.580600
0.51446  4.521300  0.558060
0.51768  4.497400  0.536790
0.52095  4.471600  0.517310
0.52425  4.448100  0.497980
0.52760  4.424600  0.481640
0.53099  4.402800  0.466570
0.53442  4.381100  0.453860
0.53790  4.360200  0.440000
0.54142  4.339400  0.426320
0.54499  4.319700  0.413480
0.54861  4.300700  0.401490
0.55227  4.282500  0.390200
0.55599  4.263300  0.379730
0.55975  4.246300  0.368140
0.56357  4.228500  0.360880
0.56744  4.211700  0.353650
0.57136  4.195100  0.346530
0.57534  4.178700  0.337310
0.57937  4.162800  0.330950
0.58346  4.147300  0.324480
0.58761  4.131900  0.316770
0.59181  4.117700  0.308910
0.59608  4.103400  0.299800
0.60041  4.089600  0.292510
0.60481  4.075500  0.286320
0.60926  4.062500  0.279820
0.61379  4.049700  0.274390
0.61838  4.036200  0.268380
0.62304  4.024000  0.265780
0.62777  4.010900  0.261700
0.63258  3.999000  0.256670
0.63746  3.987500  0.252580
0.64241  3.975700  0.247130
0.64744  3.964500  0.244130
0.65255  3.953900  0.240590
0.65775  3.944100  0.237480
0.66302  3.934300  0.235200
0.66838  3.924900  0.231980
0.67383  3.916100  0.229150
0.67937  3.907400  0.225950
0.68500  3.899600  0.220080
0.69073  3.890800  0.219230
0.69655  3.883300  0.213100
0.70247  3.876200  0.208570
0.70849  3.868500  0.205600
0.71461  3.860900  0.200590
0.72084  3.854100  0.197050
0.72719  3.847300  0.194200
0.73364  3.839400  0.192730
0.74021  3.831600  0.193330
0.74690  3.825000  0.189180
0.75371  3.817600  0.189800
0.76065  3.812500  0.189220
0.76771  3.806500  0.185940
0.77491  3.800600  0.183990
0.78224  3.795000  0.180000
0.78971  3.789100  0.175370
0.79733  3.782700  0.170370
0.80510  3.775700  0.165290
0.81302  3.767300  0.155210
0.82109  3.761800  0.148820
0.82933  3.755600  0.138920
0.83774  3.750200  0.133430
0.84632  3.744600  0.126340
0.85507  3.739100  0.126250
0.86401  3.732000  0.120540
0.87314  3.725900  0.118440
0.88246  3.722200  0.123400
0.89198  3.716700  0.118300
0.90171  3.711000  0.113390
0.91166  3.707600  0.121920
0.92182  3.703800  0.119790
0.93222  3.700700  0.119670
0.94285  3.695800  0.122850
0.95373  3.690900  0.121370
0.96487  3.686100  0.119900
0.97626  3.681400  0.118470
0.98793  3.676800  0.117060
0.99988  3.672200  0.115670
