; From SOPRA S.A. http://www.sopra-sa.com/indices.htm
; Filename    Symbol               Range (nm)     Description
; GAAS224T    GaAs                275      999    Gallium Arsenide (Temp: 224 C)
; lambda/um       n         k
0.27583  3.746300  3.129300
0.27675  3.772900  3.089000
0.27768  3.798100  3.035100
0.27862  3.807200  2.990000
0.27956  3.828700  2.940200
0.28051  3.854400  2.893600
0.28146  3.870600  2.839600
0.28243  3.894000  2.792000
0.28339  3.904800  2.752400
0.28437  3.913000  2.708300
0.28535  3.915000  2.660500
0.28634  3.918600  2.619100
0.28734  3.914300  2.578900
0.28834  3.907200  2.539000
0.28935  3.903100  2.494900
0.29036  3.896600  2.459100
0.29139  3.884400  2.422000
0.29242  3.877600  2.393300
0.29346  3.862500  2.364200
0.29450  3.848400  2.334200
0.29555  3.836200  2.313000
0.29662  3.825900  2.292500
0.29768  3.816000  2.265200
0.29876  3.806300  2.238000
0.29984  3.794600  2.207700
0.30093  3.784400  2.186400
0.30203  3.773800  2.165200
0.30314  3.761900  2.142500
0.30426  3.748800  2.125100
0.30538  3.733400  2.108800
0.30651  3.720700  2.098200
0.30766  3.710100  2.083100
0.30880  3.699900  2.070100
0.30996  3.691700  2.058600
0.31113  3.681400  2.047200
0.31231  3.673100  2.040900
0.31349  3.663900  2.033700
0.31468  3.652000  2.024500
0.31589  3.641100  2.020000
0.31710  3.630500  2.008900
0.31832  3.619100  2.003300
0.31955  3.612800  1.995000
0.32079  3.606400  1.990100
0.32204  3.600500  1.982500
0.32330  3.590900  1.979200
0.32457  3.582400  1.978100
0.32585  3.576700  1.974800
0.32714  3.572800  1.970800
0.32844  3.571400  1.967500
0.32975  3.571700  1.961900
0.33107  3.571100  1.962100
0.33240  3.573400  1.960800
0.33374  3.576000  1.959200
0.33510  3.575300  1.955600
0.33646  3.571200  1.956800
0.33783  3.567200  1.956000
0.33922  3.564500  1.954800
0.34062  3.563100  1.953000
0.34203  3.561900  1.954000
0.34345  3.561900  1.955500
0.34488  3.563000  1.960600
0.34633  3.563900  1.963700
0.34778  3.566200  1.967300
0.34925  3.568300  1.970300
0.35074  3.570900  1.973700
0.35223  3.574900  1.976600
0.35374  3.578400  1.980900
0.35526  3.583600  1.984200
0.35679  3.588700  1.989700
0.35834  3.595200  1.994500
0.35990  3.601800  1.999700
0.36147  3.608100  2.004100
0.36306  3.615200  2.009200
0.36466  3.622800  2.015200
0.36628  3.631800  2.020400
0.36791  3.641300  2.024900
0.36955  3.650900  2.031000
0.37121  3.661700  2.037400
0.37289  3.672100  2.044900
0.37458  3.685600  2.053600
0.37628  3.699100  2.061900
0.37800  3.714300  2.071200
0.37974  3.730600  2.080300
0.38149  3.748400  2.091400
0.38326  3.767900  2.102000
0.38505  3.788600  2.111300
0.38685  3.811100  2.121900
0.38867  3.835000  2.131800
0.39050  3.861500  2.141900
0.39236  3.891500  2.153000
0.39423  3.924300  2.163000
0.39612  3.961300  2.171900
0.39803  4.001700  2.180200
0.39995  4.046400  2.185300
0.40190  4.095000  2.186700
0.40386  4.145900  2.181200
0.40584  4.198600  2.170100
0.40785  4.249300  2.151500
0.40987  4.299000  2.127700
0.41191  4.344000  2.099700
0.41397  4.384900  2.069600
0.41606  4.421700  2.038000
0.41816  4.455200  2.008000
0.42029  4.486600  1.978800
0.42244  4.515700  1.952000
0.42461  4.546900  1.927900
0.42680  4.579800  1.906600
0.42901  4.617900  1.885100
0.43125  4.663900  1.862000
0.43351  4.715900  1.834400
0.43580  4.774400  1.798700
0.43811  4.836500  1.748600
0.44044  4.897100  1.684900
0.44280  4.949600  1.609000
0.44519  4.989500  1.522300
0.44760  5.014500  1.430300
0.45004  5.023600  1.339200
0.45250  5.019900  1.249300
0.45499  5.007000  1.166100
0.45751  4.985500  1.090700
0.46006  4.959700  1.021800
0.46263  4.929500  0.959160
0.46524  4.897400  0.903990
0.46787  4.864700  0.854140
0.47053  4.831000  0.807960
0.47323  4.798200  0.766290
0.47595  4.765300  0.729020
0.47871  4.732100  0.694220
0.48150  4.699500  0.663570
0.48432  4.667300  0.634500
0.48717  4.636600  0.607960
0.49006  4.605200  0.584370
0.49298  4.576000  0.561320
0.49594  4.547100  0.539230
0.49893  4.519300  0.518750
0.50196  4.493100  0.500070
0.50503  4.467000  0.482010
0.50814  4.441000  0.465800
0.51128  4.415800  0.451610
0.51446  4.392100  0.437700
0.51768  4.369800  0.424730
0.52095  4.347500  0.412380
0.52425  4.326500  0.399180
0.52760  4.305400  0.388270
0.53099  4.285500  0.378050
0.53442  4.265600  0.369150
0.53790  4.246800  0.358760
0.54142  4.228200  0.349820
0.54499  4.210800  0.341170
0.54861  4.193300  0.333150
0.55227  4.177000  0.325210
0.55599  4.160700  0.317910
0.55975  4.144900  0.310500
0.56357  4.129300  0.304360
0.56744  4.114600  0.298090
0.57136  4.099700  0.292390
0.57534  4.085700  0.286420
0.57937  4.071800  0.280810
0.58346  4.058100  0.274600
0.58761  4.044100  0.269500
0.59181  4.031200  0.264040
0.59608  4.018300  0.259590
0.60041  4.005400  0.254590
0.60481  3.993000  0.250080
0.60926  3.981100  0.246310
0.61379  3.969600  0.242490
0.61838  3.958400  0.238540
0.62304  3.947900  0.233610
0.62777  3.937300  0.228780
0.63258  3.926800  0.225230
0.63746  3.917000  0.222040
0.64241  3.907300  0.219310
0.64744  3.897500  0.216390
0.65255  3.888100  0.213480
0.65775  3.879200  0.210390
0.66302  3.870500  0.206770
0.66838  3.862400  0.202810
0.67383  3.854700  0.198190
0.67937  3.847600  0.194730
0.68500  3.841000  0.192930
0.69073  3.833900  0.191610
0.69655  3.827300  0.191550
0.70247  3.821700  0.189490
0.70849  3.816000  0.187190
0.71461  3.810200  0.183910
0.72084  3.804300  0.178300
0.72719  3.799300  0.171870
0.73364  3.793700  0.164770
0.74021  3.787500  0.156550
0.74690  3.781000  0.155350
0.75371  3.774100  0.152200
0.76065  3.767500  0.151300
0.76771  3.760900  0.150080
0.77491  3.753100  0.146490
0.78224  3.745600  0.141830
0.78971  3.737800  0.134510
0.79733  3.731100  0.129010
0.80510  3.724500  0.123460
0.81302  3.717700  0.119400
0.82109  3.711000  0.113360
0.82933  3.706500  0.106240
0.83774  3.702400  0.104390
0.84632  3.698100  0.103950
0.85507  3.694500  0.100830
0.86401  3.690400  0.102500
0.87314  3.686400  0.102310
0.88246  3.683300  0.106510
0.89198  3.677700  0.104850
0.90171  3.675600  0.099965
0.91166  3.677000  0.088727
0.92182  3.675200  0.081388
0.93222  3.670500  0.078736
0.94285  3.662100  0.079891
0.95373  3.658600  0.079166
0.96487  3.655100  0.078467
0.97626  3.651600  0.077787
0.98793  3.648100  0.077123
0.99988  3.644700  0.076476
