; From SOPRA S.A. http://www.sopra-sa.com/indices.htm
; Filename    Symbol               Range (nm)     Description
; GAAS031T    GaAs                275      999    Gallium Arsenide (Temp: 31 C)
; lambda/um       n         k
0.27583  3.997600  2.949400
0.27675  4.018700  2.921400
0.27768  4.031600  2.889600
0.27862  4.035200  2.849600
0.27956  4.047500  2.793500
0.28051  4.053000  2.729100
0.28146  4.047800  2.661900
0.28243  4.041900  2.608600
0.28339  4.027100  2.553100
0.28437  4.010900  2.511900
0.28535  4.001700  2.475300
0.28634  3.993600  2.440400
0.28734  3.977600  2.395800
0.28834  3.968000  2.350300
0.28935  3.961100  2.313600
0.29036  3.954400  2.271600
0.29139  3.938500  2.233400
0.29242  3.920400  2.208500
0.29346  3.888400  2.186000
0.29450  3.861400  2.167600
0.29555  3.836800  2.151300
0.29662  3.811400  2.127900
0.29768  3.790200  2.104200
0.29876  3.774100  2.082800
0.29984  3.752700  2.064400
0.30093  3.744900  2.051200
0.30203  3.731600  2.032100
0.30314  3.716400  2.015300
0.30426  3.697600  2.009800
0.30538  3.683200  2.005900
0.30651  3.666800  2.001400
0.30766  3.652900  1.998300
0.30880  3.641800  1.993900
0.30996  3.633000  1.987800
0.31113  3.619700  1.981400
0.31231  3.615600  1.975400
0.31349  3.606400  1.964800
0.31468  3.598700  1.958300
0.31589  3.590900  1.952600
0.31710  3.579100  1.949900
0.31832  3.566900  1.953400
0.31955  3.558000  1.956300
0.32079  3.550200  1.958200
0.32204  3.550300  1.962000
0.32330  3.546900  1.963100
0.32457  3.542600  1.962300
0.32585  3.542100  1.962600
0.32714  3.541700  1.956900
0.32844  3.538900  1.956500
0.32975  3.532400  1.950400
0.33107  3.537800  1.958200
0.33240  3.531700  1.967900
0.33374  3.525300  1.976000
0.33510  3.520000  1.981400
0.33646  3.520200  1.984700
0.33783  3.517900  1.986500
0.33922  3.528100  1.993100
0.34062  3.528000  1.990300
0.34203  3.527900  1.990500
0.34345  3.531900  1.987100
0.34488  3.535500  1.994500
0.34633  3.535200  2.004500
0.34778  3.539200  2.009400
0.34925  3.543700  2.015000
0.35074  3.549100  2.022300
0.35223  3.553700  2.032400
0.35374  3.559000  2.041600
0.35526  3.566400  2.051400
0.35679  3.573000  2.059600
0.35834  3.582700  2.068200
0.35990  3.591900  2.077400
0.36147  3.603700  2.086600
0.36306  3.616800  2.097600
0.36466  3.628800  2.109200
0.36628  3.642400  2.123000
0.36791  3.657200  2.136600
0.36955  3.671800  2.149400
0.37121  3.686700  2.162900
0.37289  3.703100  2.176400
0.37458  3.722800  2.190900
0.37628  3.743000  2.206500
0.37800  3.766300  2.222900
0.37974  3.792300  2.241900
0.38149  3.820400  2.261700
0.38326  3.855300  2.285500
0.38505  3.898000  2.308700
0.38685  3.948500  2.332500
0.38867  4.010200  2.350600
0.39050  4.080100  2.361300
0.39236  4.157100  2.358700
0.39423  4.234400  2.340500
0.39612  4.307900  2.308700
0.39803  4.371800  2.265000
0.39995  4.424300  2.216400
0.40190  4.463800  2.168700
0.40386  4.492800  2.123800
0.40584  4.515300  2.086000
0.40785  4.533900  2.055300
0.40987  4.550900  2.035000
0.41191  4.570900  2.025700
0.41397  4.599800  2.026100
0.41606  4.649300  2.031400
0.41816  4.720200  2.032500
0.42029  4.813800  2.020900
0.42244  4.921900  1.982000
0.42461  5.032600  1.908500
0.42680  5.129800  1.800300
0.42901  5.200500  1.665400
0.43125  5.231600  1.520600
0.43351  5.230000  1.385300
0.43580  5.207800  1.263100
0.43811  5.174100  1.156900
0.44044  5.132800  1.068600
0.44280  5.090500  0.993740
0.44519  5.046500  0.930450
0.44760  5.001900  0.874010
0.45004  4.959300  0.823030
0.45250  4.918000  0.777140
0.45499  4.873800  0.738860
0.45751  4.833400  0.703100
0.46006  4.793800  0.670690
0.46263  4.756100  0.641340
0.46524  4.720300  0.615230
0.46787  4.687400  0.590740
0.47053  4.655800  0.568970
0.47323  4.624600  0.547870
0.47595  4.595800  0.527000
0.47871  4.566600  0.508670
0.48150  4.537800  0.490880
0.48432  4.508800  0.474510
0.48717  4.481000  0.459650
0.49006  4.454800  0.445090
0.49298  4.429500  0.432600
0.49594  4.404600  0.419600
0.49893  4.380600  0.407580
0.50196  4.357100  0.396680
0.50503  4.334500  0.385420
0.50814  4.312300  0.374830
0.51128  4.291000  0.364600
0.51446  4.269700  0.355560
0.51768  4.250600  0.347200
0.52095  4.231200  0.338790
0.52425  4.212300  0.329260
0.52760  4.194100  0.318900
0.53099  4.176700  0.308660
0.53442  4.159700  0.301070
0.53790  4.142500  0.294270
0.54142  4.125800  0.288170
0.54499  4.110000  0.283710
0.54861  4.095400  0.280170
0.55227  4.081100  0.277010
0.55599  4.066600  0.274070
0.55975  4.052600  0.269750
0.56357  4.039900  0.263830
0.56744  4.027300  0.258880
0.57136  4.015100  0.253890
0.57534  4.002800  0.248780
0.57937  3.991300  0.243960
0.58346  3.979200  0.239260
0.58761  3.967600  0.234010
0.59181  3.955600  0.229310
0.59608  3.944100  0.226010
0.60041  3.933100  0.220710
0.60481  3.922800  0.215080
0.60926  3.912500  0.210770
0.61379  3.902800  0.205490
0.61838  3.893400  0.201960
0.62304  3.884400  0.198850
0.62777  3.874500  0.197400
0.63258  3.865600  0.194880
0.63746  3.856900  0.193940
0.64241  3.848700  0.193860
0.64744  3.840900  0.191990
0.65255  3.833500  0.186860
0.65775  3.825800  0.182000
0.66302  3.818600  0.176830
0.66838  3.812300  0.172410
0.67383  3.806000  0.166040
0.67937  3.800300  0.162030
0.68500  3.794400  0.158260
0.69073  3.789200  0.156070
0.69655  3.783400  0.153670
0.70247  3.777800  0.149890
0.70849  3.771000  0.142940
0.71461  3.762100  0.136220
0.72084  3.753200  0.129430
0.72719  3.744600  0.121530
0.73364  3.737200  0.116970
0.74021  3.738500  0.123670
0.74690  3.721500  0.119670
0.75371  3.706400  0.110560
0.76065  3.695000  0.099292
0.76771  3.687000  0.086629
0.77491  3.682000  0.078076
0.78224  3.679700  0.075276
0.78971  3.678100  0.074457
0.79733  3.678300  0.078797
0.80510  3.678800  0.094480
0.81302  3.670700  0.089199
0.82109  3.660800  0.072478
0.82933  3.659100  0.066012
0.83774  3.657800  0.055379
0.84632  3.657500  0.049715
0.85507  3.661900  0.033767
0.86401  3.661100  0.030247
0.87314  3.653800  0.033067
0.88246  3.641200  0.043042
0.89198  3.624500  0.057980
0.90171  3.609600  0.055718
0.91166  3.587700  0.075753
0.92182  3.572200  0.105090
0.93222  3.557100  0.125570
0.94285  3.548200  0.144310
0.95373  3.542900  0.141770
0.96487  3.537600  0.139270
0.97626  3.532500  0.136830
0.98793  3.527500  0.134440
0.99988  3.522700  0.132100
