; From SOPRA S.A. http://www.sopra-sa.com/indices.htm
; Filename    Symbol               Range (nm)     Description
; GAAS443T    GaAs                275      999    Gallium Arsenide (Temp: 443 C)
; lambda/um       n         k
0.27583  3.520700  3.243300
0.27675  3.541600  3.213900
0.27768  3.569500  3.163000
0.27862  3.602700  3.121000
0.27956  3.620700  3.077900
0.28051  3.656300  3.043100
0.28146  3.686200  2.998700
0.28243  3.717200  2.963400
0.28339  3.727200  2.925100
0.28437  3.740900  2.885900
0.28535  3.751200  2.847400
0.28634  3.758000  2.810800
0.28734  3.765500  2.771300
0.28834  3.776900  2.736000
0.28935  3.778100  2.701100
0.29036  3.790500  2.663600
0.29139  3.796700  2.624200
0.29242  3.803400  2.586400
0.29346  3.803000  2.548900
0.29450  3.800400  2.518900
0.29555  3.796600  2.486300
0.29662  3.793600  2.455300
0.29768  3.788100  2.426500
0.29876  3.784800  2.401300
0.29984  3.779400  2.373100
0.30093  3.774200  2.349900
0.30203  3.772400  2.325300
0.30314  3.768300  2.298100
0.30426  3.763100  2.275500
0.30538  3.753900  2.252300
0.30651  3.747200  2.231100
0.30766  3.738800  2.212200
0.30880  3.727400  2.195300
0.30996  3.718200  2.179000
0.31113  3.707600  2.160100
0.31231  3.700800  2.145000
0.31349  3.694900  2.130000
0.31468  3.687700  2.116800
0.31589  3.680800  2.104900
0.31710  3.673800  2.090500
0.31832  3.667000  2.079000
0.31955  3.661800  2.070400
0.32079  3.656100  2.061000
0.32204  3.648300  2.050400
0.32330  3.640500  2.041700
0.32457  3.635600  2.033700
0.32585  3.632100  2.027100
0.32714  3.627700  2.026800
0.32844  3.625200  2.025000
0.32975  3.623200  2.019500
0.33107  3.622300  2.015400
0.33240  3.622600  2.010900
0.33374  3.620300  2.003500
0.33510  3.614000  1.996000
0.33646  3.609600  1.988100
0.33783  3.606300  1.978800
0.33922  3.603500  1.971800
0.34062  3.600100  1.969100
0.34203  3.598800  1.964800
0.34345  3.597900  1.959700
0.34488  3.598000  1.958900
0.34633  3.596700  1.957800
0.34778  3.596400  1.958100
0.34925  3.597400  1.957400
0.35074  3.599200  1.956700
0.35223  3.600600  1.955700
0.35374  3.602400  1.955600
0.35526  3.604500  1.957100
0.35679  3.606900  1.958700
0.35834  3.610200  1.961000
0.35990  3.613400  1.963500
0.36147  3.617300  1.965500
0.36306  3.622500  1.968000
0.36466  3.627200  1.970500
0.36628  3.632400  1.972600
0.36791  3.637800  1.973600
0.36955  3.643900  1.976100
0.37121  3.650000  1.980500
0.37289  3.657700  1.983400
0.37458  3.667300  1.986100
0.37628  3.677400  1.988400
0.37800  3.688200  1.992600
0.37974  3.699300  1.996500
0.38149  3.710300  2.002100
0.38326  3.722200  2.007800
0.38505  3.734600  2.013000
0.38685  3.747400  2.018600
0.38867  3.761100  2.024800
0.39050  3.776300  2.027600
0.39236  3.792400  2.029800
0.39423  3.810500  2.033300
0.39612  3.829800  2.037300
0.39803  3.851300  2.040900
0.39995  3.874000  2.045400
0.40190  3.897700  2.050700
0.40386  3.924700  2.054800
0.40584  3.952100  2.057600
0.40785  3.980900  2.059900
0.40987  4.011100  2.059500
0.41191  4.042600  2.058100
0.41397  4.077100  2.055300
0.41606  4.112600  2.050200
0.41816  4.150200  2.042600
0.42029  4.188100  2.032300
0.42244  4.226100  2.020000
0.42461  4.263300  2.003800
0.42680  4.299100  1.985300
0.42901  4.334800  1.964700
0.43125  4.369300  1.941100
0.43351  4.402500  1.915700
0.43580  4.435200  1.889900
0.43811  4.467500  1.862100
0.44044  4.500600  1.834600
0.44280  4.533200  1.807900
0.44519  4.565600  1.780100
0.44760  4.598500  1.751600
0.45004  4.633200  1.720400
0.45250  4.669100  1.685900
0.45499  4.705400  1.646200
0.45751  4.741900  1.601300
0.46006  4.777000  1.551200
0.46263  4.808800  1.491800
0.46524  4.835500  1.432300
0.46787  4.854200  1.368600
0.47053  4.865000  1.302000
0.47323  4.871200  1.236800
0.47595  4.866900  1.171800
0.47871  4.858200  1.107600
0.48150  4.844000  1.047100
0.48432  4.825400  0.990620
0.48717  4.803200  0.938150
0.49006  4.778700  0.888510
0.49298  4.752900  0.844910
0.49594  4.725600  0.802100
0.49893  4.698100  0.763840
0.50196  4.671700  0.728460
0.50503  4.644500  0.692950
0.50814  4.618300  0.660440
0.51128  4.592100  0.632430
0.51446  4.565500  0.606450
0.51768  4.539500  0.584360
0.52095  4.514500  0.561040
0.52425  4.489300  0.540040
0.52760  4.465700  0.519880
0.53099  4.442700  0.502240
0.53442  4.420600  0.485320
0.53790  4.399600  0.467950
0.54142  4.378700  0.452960
0.54499  4.357900  0.439750
0.54861  4.337800  0.427130
0.55227  4.319000  0.414350
0.55599  4.300500  0.401540
0.55975  4.281900  0.392270
0.56357  4.263800  0.383250
0.56744  4.246600  0.375010
0.57136  4.228800  0.368710
0.57534  4.211100  0.361510
0.57937  4.195000  0.351710
0.58346  4.178200  0.344360
0.58761  4.162200  0.337060
0.59181  4.146600  0.327540
0.59608  4.132100  0.320610
0.60041  4.118000  0.314940
0.60481  4.103000  0.308660
0.60926  4.089300  0.302360
0.61379  4.074900  0.297970
0.61838  4.061300  0.290950
0.62304  4.049300  0.282940
0.62777  4.036600  0.276060
0.63258  4.024600  0.269770
0.63746  4.012400  0.265410
0.64241  4.001000  0.259380
0.64744  3.989300  0.257880
0.65255  3.976900  0.254110
0.65775  3.966200  0.248210
0.66302  3.955300  0.246360
0.66838  3.945500  0.242750
0.67383  3.937100  0.240190
0.67937  3.926600  0.236410
0.68500  3.917300  0.235670
0.69073  3.907900  0.234440
0.69655  3.898800  0.231360
0.70247  3.889300  0.233220
0.70849  3.881300  0.228330
0.71461  3.874900  0.222340
0.72084  3.867900  0.216560
0.72719  3.861900  0.212420
0.73364  3.855400  0.208930
0.74021  3.846900  0.203470
0.74690  3.842500  0.201470
0.75371  3.837300  0.197710
0.76065  3.832700  0.192920
0.76771  3.826200  0.189890
0.77491  3.821500  0.184690
0.78224  3.816400  0.179350
0.78971  3.810000  0.175900
0.79733  3.801900  0.174430
0.80510  3.793700  0.174680
0.81302  3.785900  0.173250
0.82109  3.779800  0.169310
0.82933  3.775400  0.164830
0.83774  3.771200  0.159350
0.84632  3.764900  0.156320
0.85507  3.758600  0.148330
0.86401  3.752200  0.142620
0.87314  3.745400  0.140130
0.88246  3.738100  0.134840
0.89198  3.732000  0.136260
0.90171  3.725900  0.132400
0.91166  3.721800  0.125310
0.92182  3.719300  0.129730
0.93222  3.715700  0.133170
0.94285  3.712100  0.137990
0.95373  3.706600  0.136370
0.96487  3.701200  0.134760
0.97626  3.695900  0.133160
0.98793  3.683900  0.130180
0.99988  3.685600  0.129990
