; From SOPRA S.A. http://www.sopra-sa.com/indices.htm
; Filename    Symbol               Range (nm)     Description
; GAAS367T    GaAs                275      999    Gallium Arsenide (Temp: 367 C)
; lambda/um       n         k
0.27583  3.573000  3.230100
0.27675  3.599500  3.172500
0.27768  3.635400  3.110300
0.27862  3.679700  3.063700
0.27956  3.702700  3.024900
0.28051  3.723200  2.997300
0.28146  3.741000  2.964700
0.28243  3.759700  2.930800
0.28339  3.763500  2.888500
0.28437  3.776500  2.857500
0.28535  3.793900  2.813000
0.28634  3.807600  2.772000
0.28734  3.826100  2.728700
0.28834  3.834100  2.688800
0.28935  3.842100  2.655400
0.29036  3.843400  2.609600
0.29139  3.846100  2.579600
0.29242  3.831300  2.544700
0.29346  3.825000  2.506300
0.29450  3.821300  2.470700
0.29555  3.817100  2.435100
0.29662  3.814400  2.406900
0.29768  3.808600  2.376600
0.29876  3.799000  2.351100
0.29984  3.796900  2.324100
0.30093  3.784700  2.293000
0.30203  3.776700  2.272300
0.30314  3.764100  2.242000
0.30426  3.760800  2.219300
0.30538  3.759100  2.191000
0.30651  3.752800  2.174700
0.30766  3.741800  2.163200
0.30880  3.725700  2.152800
0.30996  3.718800  2.142900
0.31113  3.707600  2.126100
0.31231  3.692600  2.109500
0.31349  3.682600  2.098200
0.31468  3.671500  2.083100
0.31589  3.667000  2.075500
0.31710  3.659700  2.063700
0.31832  3.653300  2.055200
0.31955  3.644000  2.048500
0.32079  3.641400  2.038600
0.32204  3.639700  2.028500
0.32330  3.635300  2.019300
0.32457  3.630500  2.014000
0.32585  3.624500  2.009300
0.32714  3.614400  2.004600
0.32844  3.607500  2.006400
0.32975  3.600400  2.004300
0.33107  3.598600  2.000400
0.33240  3.595500  1.997100
0.33374  3.597000  1.991300
0.33510  3.595900  1.987200
0.33646  3.597700  1.982800
0.33783  3.598000  1.978100
0.33922  3.594100  1.971100
0.34062  3.590700  1.965700
0.34203  3.587700  1.963100
0.34345  3.586600  1.959400
0.34488  3.585100  1.957700
0.34633  3.582600  1.957400
0.34778  3.582900  1.959400
0.34925  3.583900  1.961100
0.35074  3.586000  1.962600
0.35223  3.589500  1.964600
0.35374  3.594100  1.965500
0.35526  3.597800  1.967700
0.35679  3.601200  1.969700
0.35834  3.605400  1.972400
0.35990  3.609100  1.976000
0.36147  3.613700  1.980800
0.36306  3.618400  1.984700
0.36466  3.623200  1.989000
0.36628  3.629200  1.992900
0.36791  3.636000  1.994600
0.36955  3.644400  1.998500
0.37121  3.652100  2.002000
0.37289  3.660400  2.005400
0.37458  3.670300  2.009200
0.37628  3.680400  2.012700
0.37800  3.691400  2.017700
0.37974  3.703900  2.023100
0.38149  3.716600  2.028000
0.38326  3.730400  2.033400
0.38505  3.746400  2.038100
0.38685  3.762400  2.046500
0.38867  3.779600  2.053200
0.39050  3.798200  2.061000
0.39236  3.818800  2.067900
0.39423  3.839600  2.074400
0.39612  3.862000  2.080500
0.39803  3.887300  2.086700
0.39995  3.913800  2.091700
0.40190  3.943700  2.095700
0.40386  3.977200  2.099100
0.40584  4.010500  2.101800
0.40785  4.045800  2.102000
0.40987  4.084600  2.099800
0.41191  4.124400  2.093700
0.41397  4.164800  2.085400
0.41606  4.206000  2.072100
0.41816  4.246600  2.056100
0.42029  4.287300  2.037300
0.42244  4.326800  2.015900
0.42461  4.365700  1.992100
0.42680  4.400600  1.966900
0.42901  4.433800  1.940600
0.43125  4.467200  1.911800
0.43351  4.498400  1.884400
0.43580  4.529600  1.858500
0.43811  4.563400  1.831200
0.44044  4.599200  1.804300
0.44280  4.637200  1.776000
0.44519  4.678700  1.744700
0.44760  4.723000  1.706700
0.45004  4.764900  1.661600
0.45250  4.806900  1.608000
0.45499  4.845400  1.546500
0.45751  4.875700  1.479500
0.46006  4.899500  1.408500
0.46263  4.913300  1.334900
0.46524  4.919100  1.262600
0.46787  4.915700  1.194500
0.47053  4.905800  1.127500
0.47323  4.890600  1.064000
0.47595  4.868700  1.005300
0.47871  4.844900  0.949590
0.48150  4.819700  0.895980
0.48432  4.792500  0.846920
0.48717  4.764600  0.802610
0.49006  4.733600  0.763530
0.49298  4.703100  0.728160
0.49594  4.673300  0.695760
0.49893  4.643700  0.664120
0.50196  4.615700  0.634050
0.50503  4.587900  0.606560
0.50814  4.560800  0.581090
0.51128  4.535400  0.556300
0.51446  4.510300  0.535070
0.51768  4.486200  0.515610
0.52095  4.460900  0.498570
0.52425  4.435900  0.482590
0.52760  4.412300  0.467220
0.53099  4.390100  0.451160
0.53442  4.368000  0.437260
0.53790  4.347000  0.424130
0.54142  4.326200  0.411810
0.54499  4.306600  0.401620
0.54861  4.287100  0.392440
0.55227  4.268300  0.383880
0.55599  4.248900  0.375990
0.55975  4.231000  0.368330
0.56357  4.214800  0.358710
0.56744  4.199300  0.346810
0.57136  4.183200  0.339280
0.57534  4.167700  0.331060
0.57937  4.152500  0.323050
0.58346  4.137700  0.316200
0.58761  4.122600  0.309490
0.59181  4.107100  0.302350
0.59608  4.092100  0.295980
0.60041  4.077500  0.289870
0.60481  4.063400  0.282470
0.60926  4.050100  0.276350
0.61379  4.035800  0.273670
0.61838  4.023100  0.269500
0.62304  4.011000  0.267670
0.62777  3.999400  0.265100
0.63258  3.988300  0.261140
0.63746  3.977800  0.253710
0.64241  3.968100  0.248380
0.64744  3.957300  0.240550
0.65255  3.947200  0.235910
0.65775  3.937800  0.229990
0.66302  3.927100  0.225570
0.66838  3.918500  0.222890
0.67383  3.909700  0.223150
0.67937  3.900400  0.222730
0.68500  3.890900  0.223200
0.69073  3.882500  0.221050
0.69655  3.874900  0.215440
0.70247  3.867600  0.209660
0.70849  3.861100  0.204870
0.71461  3.854700  0.199980
0.72084  3.849100  0.193730
0.72719  3.843500  0.190290
0.73364  3.837800  0.187250
0.74021  3.831700  0.184700
0.74690  3.824500  0.187510
0.75371  3.816200  0.185250
0.76065  3.807900  0.181340
0.76771  3.800100  0.180320
0.77491  3.793600  0.175170
0.78224  3.785700  0.170300
0.78971  3.779200  0.161060
0.79733  3.772700  0.153650
0.80510  3.766000  0.146660
0.81302  3.760700  0.146840
0.82109  3.753600  0.134310
0.82933  3.748100  0.127010
0.83774  3.743200  0.126170
0.84632  3.737800  0.125870
0.85507  3.733500  0.125540
0.86401  3.726600  0.124700
0.87314  3.720500  0.124650
0.88246  3.714800  0.127470
0.89198  3.707400  0.124310
0.90171  3.702500  0.127690
0.91166  3.703000  0.114070
0.92182  3.700500  0.119220
0.93222  3.697200  0.124920
0.94285  3.694500  0.130230
0.95373  3.689300  0.128950
0.96487  3.684100  0.127660
0.97626  3.679100  0.126390
0.98793  3.674700  0.123080
0.99988  3.669200  0.123870
