; From SOPRA S.A. http://www.sopra-sa.com/indices.htm
; Filename    Symbol               Range (nm)     Description
; GAAS199T    GaAs                275      999    Gallium Arsenide (Temp: 199 C)
; lambda/um       n         k
0.27583  3.779200  3.094200
0.27675  3.801500  3.055100
0.27768  3.830800  3.017700
0.27862  3.855800  2.979100
0.27956  3.877000  2.930100
0.28051  3.886700  2.870500
0.28146  3.907200  2.825200
0.28243  3.926200  2.783200
0.28339  3.931100  2.745300
0.28437  3.937000  2.700900
0.28535  3.935700  2.653000
0.28634  3.931100  2.604900
0.28734  3.923300  2.564800
0.28834  3.916000  2.522400
0.28935  3.905400  2.477200
0.29036  3.890000  2.432200
0.29139  3.884300  2.396500
0.29242  3.877500  2.365900
0.29346  3.865500  2.332400
0.29450  3.858500  2.302200
0.29555  3.849100  2.273800
0.29662  3.840600  2.245500
0.29768  3.827800  2.221800
0.29876  3.816500  2.199400
0.29984  3.801600  2.176100
0.30093  3.787800  2.155600
0.30203  3.772800  2.143100
0.30314  3.761100  2.129500
0.30426  3.748100  2.110600
0.30538  3.735700  2.096100
0.30651  3.720500  2.085800
0.30766  3.707100  2.072700
0.30880  3.693600  2.059400
0.30996  3.685200  2.048800
0.31113  3.673800  2.035300
0.31231  3.663200  2.028900
0.31349  3.651800  2.022900
0.31468  3.639900  2.014000
0.31589  3.630400  2.005000
0.31710  3.623000  1.998500
0.31832  3.613500  1.991800
0.31955  3.605600  1.985100
0.32079  3.601500  1.979900
0.32204  3.600600  1.976600
0.32330  3.595400  1.969400
0.32457  3.590600  1.968000
0.32585  3.587700  1.965200
0.32714  3.581200  1.962900
0.32844  3.574300  1.961400
0.32975  3.570800  1.959000
0.33107  3.562100  1.957800
0.33240  3.551200  1.957900
0.33374  3.546400  1.955700
0.33510  3.543300  1.954300
0.33646  3.541000  1.950000
0.33783  3.544000  1.949700
0.33922  3.550300  1.948500
0.34062  3.555400  1.948100
0.34203  3.558400  1.950400
0.34345  3.564900  1.951400
0.34488  3.563000  1.955900
0.34633  3.562100  1.958900
0.34778  3.564400  1.963300
0.34925  3.566200  1.968300
0.35074  3.569000  1.971800
0.35223  3.573400  1.976800
0.35374  3.578200  1.981000
0.35526  3.584000  1.986500
0.35679  3.588400  1.993200
0.35834  3.593500  1.998100
0.35990  3.598700  2.004400
0.36147  3.606300  2.009900
0.36306  3.613600  2.016100
0.36466  3.622400  2.021000
0.36628  3.631600  2.027600
0.36791  3.641600  2.035500
0.36955  3.653400  2.041900
0.37121  3.665000  2.050100
0.37289  3.677400  2.059500
0.37458  3.690800  2.068800
0.37628  3.705300  2.079400
0.37800  3.720600  2.088600
0.37974  3.737400  2.097400
0.38149  3.756900  2.105900
0.38326  3.776900  2.116800
0.38505  3.798000  2.127200
0.38685  3.821900  2.138000
0.38867  3.848200  2.149300
0.39050  3.878300  2.161000
0.39236  3.911200  2.172500
0.39423  3.946900  2.183800
0.39612  3.986500  2.191900
0.39803  4.031600  2.198700
0.39995  4.081500  2.198900
0.40190  4.133900  2.195700
0.40386  4.188100  2.186900
0.40584  4.242300  2.171700
0.40785  4.295000  2.149500
0.40987  4.344200  2.121600
0.41191  4.387500  2.090400
0.41397  4.424900  2.059000
0.41606  4.458700  2.026200
0.41816  4.488800  1.996800
0.42029  4.517400  1.968900
0.42244  4.546100  1.945200
0.42461  4.578000  1.924500
0.42680  4.613800  1.906100
0.42901  4.659700  1.886200
0.43125  4.714100  1.860600
0.43351  4.775700  1.828400
0.43580  4.842600  1.782600
0.43811  4.908600  1.717800
0.44044  4.967000  1.639300
0.44280  5.012400  1.548600
0.44519  5.040200  1.450800
0.44760  5.049600  1.353200
0.45004  5.045000  1.259700
0.45250  5.030300  1.172600
0.45499  5.007700  1.094900
0.45751  4.979600  1.025700
0.46006  4.948200  0.963360
0.46263  4.914900  0.906000
0.46524  4.881000  0.855840
0.46787  4.846800  0.810670
0.47053  4.811900  0.770240
0.47323  4.776900  0.733800
0.47595  4.743600  0.699510
0.47871  4.710600  0.668190
0.48150  4.678500  0.640360
0.48432  4.646700  0.612880
0.48717  4.616200  0.587950
0.49006  4.587300  0.563660
0.49298  4.558700  0.541010
0.49594  4.530700  0.519490
0.49893  4.503200  0.499840
0.50196  4.476000  0.481750
0.50503  4.449800  0.465640
0.50814  4.424200  0.451500
0.51128  4.399700  0.438580
0.51446  4.376200  0.425560
0.51768  4.353900  0.413600
0.52095  4.332200  0.402420
0.52425  4.310900  0.391190
0.52760  4.290500  0.379740
0.53099  4.270900  0.369210
0.53442  4.251200  0.359670
0.53790  4.232200  0.350420
0.54142  4.213800  0.342390
0.54499  4.196400  0.333510
0.54861  4.179800  0.325680
0.55227  4.163400  0.318200
0.55599  4.147500  0.311260
0.55975  4.132200  0.304620
0.56357  4.117600  0.297300
0.56744  4.103000  0.292170
0.57136  4.088200  0.287570
0.57534  4.074300  0.281800
0.57937  4.060600  0.277630
0.58346  4.047300  0.272170
0.58761  4.034400  0.265550
0.59181  4.021700  0.258310
0.59608  4.009000  0.251940
0.60041  3.996800  0.246650
0.60481  3.984600  0.240380
0.60926  3.972500  0.236680
0.61379  3.961000  0.232540
0.61838  3.949700  0.228560
0.62304  3.938600  0.226650
0.62777  3.928200  0.224530
0.63258  3.917800  0.222880
0.63746  3.908200  0.219360
0.64241  3.898900  0.217100
0.64744  3.889700  0.213540
0.65255  3.880500  0.210550
0.65775  3.872200  0.205990
0.66302  3.864300  0.201530
0.66838  3.856300  0.198190
0.67383  3.849000  0.195280
0.67937  3.842200  0.192050
0.68500  3.835200  0.190260
0.69073  3.829100  0.187600
0.69655  3.822800  0.185590
0.70247  3.816000  0.182920
0.70849  3.809400  0.181380
0.71461  3.802700  0.178520
0.72084  3.796900  0.175000
0.72719  3.790900  0.168320
0.73364  3.785500  0.163930
0.74021  3.779700  0.160000
0.74690  3.773000  0.153530
0.75371  3.766400  0.148310
0.76065  3.758800  0.140910
0.76771  3.752100  0.138510
0.77491  3.744000  0.138720
0.78224  3.735800  0.137020
0.78971  3.728600  0.135360
0.79733  3.721900  0.132280
0.80510  3.713500  0.130430
0.81302  3.706700  0.124900
0.82109  3.703500  0.121310
0.82933  3.703700  0.123720
0.83774  3.694800  0.112600
0.84632  3.686400  0.105070
0.85507  3.680000  0.103100
0.86401  3.674500  0.095853
0.87314  3.670700  0.093062
0.88246  3.669400  0.087562
0.89198  3.669100  0.081238
0.90171  3.670300  0.077590
0.91166  3.669700  0.082025
0.92182  3.665800  0.086156
0.93222  3.657300  0.081306
0.94285  3.644000  0.089876
0.95373  3.640100  0.088687
0.96487  3.636200  0.087509
0.97626  3.632300  0.086358
0.98793  3.628500  0.085217
0.99988  3.624700  0.084086
