; From SOPRA S.A. http://www.sopra-sa.com/indices.htm
; Filename    Symbol               Range (nm)     Description
; GAAS344T    GaAs                275      999    Gallium Arsenide (Temp: 344 C)
; lambda/um       n         k
0.27583  3.598800  3.210600
0.27675  3.641100  3.170700
0.27768  3.687300  3.129900
0.27862  3.706900  3.085800
0.27956  3.726400  3.046700
0.28051  3.764600  3.005800
0.28146  3.783100  2.971200
0.28243  3.801700  2.939200
0.28339  3.816100  2.896400
0.28437  3.822300  2.856200
0.28535  3.824700  2.812600
0.28634  3.827300  2.775300
0.28734  3.824200  2.731600
0.28834  3.823500  2.683700
0.28935  3.825500  2.638600
0.29036  3.830700  2.595000
0.29139  3.830800  2.555800
0.29242  3.832900  2.517800
0.29346  3.826400  2.479700
0.29450  3.824500  2.443700
0.29555  3.824300  2.417200
0.29662  3.819700  2.396400
0.29768  3.810300  2.372400
0.29876  3.804800  2.342200
0.29984  3.796500  2.317300
0.30093  3.788500  2.290900
0.30203  3.775400  2.265800
0.30314  3.759600  2.242600
0.30426  3.748200  2.222600
0.30538  3.737200  2.200800
0.30651  3.728200  2.187200
0.30766  3.718800  2.172200
0.30880  3.707700  2.159500
0.30996  3.698900  2.142300
0.31113  3.690100  2.128600
0.31231  3.682600  2.113800
0.31349  3.672100  2.100600
0.31468  3.663200  2.090500
0.31589  3.655200  2.080700
0.31710  3.644100  2.067900
0.31832  3.634300  2.061500
0.31955  3.631200  2.054200
0.32079  3.623700  2.044500
0.32204  3.622100  2.032900
0.32330  3.618800  2.025500
0.32457  3.611200  2.017000
0.32585  3.602100  2.011600
0.32714  3.592400  2.006800
0.32844  3.586500  2.004200
0.32975  3.583500  2.003600
0.33107  3.581000  2.003500
0.33240  3.582600  2.003700
0.33374  3.579000  2.003300
0.33510  3.579700  2.000200
0.33646  3.579300  1.997200
0.33783  3.576100  1.990900
0.33922  3.573900  1.983300
0.34062  3.572800  1.975500
0.34203  3.576400  1.971500
0.34345  3.578500  1.967100
0.34488  3.580600  1.962900
0.34633  3.581400  1.963400
0.34778  3.581200  1.966200
0.34925  3.582700  1.967600
0.35074  3.585100  1.968300
0.35223  3.587500  1.971000
0.35374  3.589800  1.973500
0.35526  3.592600  1.975900
0.35679  3.594700  1.979800
0.35834  3.597800  1.981500
0.35990  3.601900  1.984300
0.36147  3.606700  1.988600
0.36306  3.611700  1.993500
0.36466  3.618900  1.998000
0.36628  3.626600  2.000600
0.36791  3.634800  2.004300
0.36955  3.643700  2.008400
0.37121  3.652000  2.013900
0.37289  3.661200  2.019100
0.37458  3.670600  2.023600
0.37628  3.681400  2.029400
0.37800  3.691500  2.035900
0.37974  3.703100  2.043300
0.38149  3.717800  2.049800
0.38326  3.732700  2.055500
0.38505  3.749400  2.061400
0.38685  3.767400  2.067400
0.38867  3.785200  2.075200
0.39050  3.805800  2.081100
0.39236  3.826700  2.088400
0.39423  3.850000  2.094300
0.39612  3.873400  2.101700
0.39803  3.900400  2.108600
0.39995  3.929500  2.114100
0.40190  3.960900  2.118500
0.40386  3.995400  2.121100
0.40584  4.032400  2.121800
0.40785  4.071300  2.121300
0.40987  4.113100  2.117300
0.41191  4.154700  2.111200
0.41397  4.198500  2.100300
0.41606  4.241900  2.085200
0.41816  4.283800  2.066700
0.42029  4.323300  2.044700
0.42244  4.361700  2.019100
0.42461  4.397200  1.991700
0.42680  4.431000  1.963700
0.42901  4.463400  1.935900
0.43125  4.495800  1.908600
0.43351  4.527700  1.882800
0.43580  4.562100  1.856000
0.43811  4.599300  1.827800
0.44044  4.638700  1.799900
0.44280  4.681100  1.768800
0.44519  4.726400  1.731000
0.44760  4.772400  1.686800
0.45004  4.817000  1.635200
0.45250  4.857700  1.575000
0.45499  4.891300  1.507100
0.45751  4.916600  1.433600
0.46006  4.931500  1.357000
0.46263  4.937700  1.279700
0.46524  4.935100  1.206900
0.46787  4.924500  1.138300
0.47053  4.908500  1.072500
0.47323  4.887000  1.011900
0.47595  4.861800  0.956750
0.47871  4.835200  0.904790
0.48150  4.806100  0.855970
0.48432  4.777000  0.810030
0.48717  4.746700  0.768900
0.49006  4.716600  0.730750
0.49298  4.687300  0.697910
0.49594  4.656500  0.668220
0.49893  4.626800  0.639190
0.50196  4.598000  0.612760
0.50503  4.569300  0.588010
0.50814  4.541700  0.564800
0.51128  4.515300  0.542320
0.51446  4.490200  0.521420
0.51768  4.465200  0.503410
0.52095  4.441000  0.484700
0.52425  4.418300  0.467370
0.52760  4.394900  0.451960
0.53099  4.373200  0.437890
0.53442  4.352000  0.424770
0.53790  4.331000  0.413070
0.54142  4.310800  0.402840
0.54499  4.291200  0.392860
0.54861  4.272400  0.382950
0.55227  4.253900  0.373670
0.55599  4.236200  0.363620
0.55975  4.219100  0.353690
0.56357  4.202300  0.344970
0.56744  4.186400  0.337140
0.57136  4.170300  0.329730
0.57534  4.155300  0.322590
0.57937  4.140100  0.316510
0.58346  4.125100  0.311150
0.58761  4.110100  0.305820
0.59181  4.095500  0.299580
0.59608  4.081300  0.293540
0.60041  4.067000  0.286780
0.60481  4.053200  0.281640
0.60926  4.040300  0.275690
0.61379  4.027300  0.269800
0.61838  4.015300  0.263520
0.62304  4.003100  0.258030
0.62777  3.991000  0.253860
0.63258  3.978500  0.249030
0.63746  3.967000  0.245150
0.64241  3.956200  0.242460
0.64744  3.945700  0.239550
0.65255  3.935500  0.236090
0.65775  3.926100  0.232900
0.66302  3.916900  0.229640
0.66838  3.907800  0.224980
0.67383  3.899200  0.219740
0.67937  3.891100  0.214860
0.68500  3.882800  0.209710
0.69073  3.875600  0.207120
0.69655  3.867600  0.204560
0.70247  3.859700  0.201620
0.70849  3.852100  0.198500
0.71461  3.844600  0.195920
0.72084  3.837800  0.194260
0.72719  3.830500  0.190840
0.73364  3.824500  0.189640
0.74021  3.819100  0.183500
0.74690  3.813700  0.181600
0.75371  3.808500  0.181060
0.76065  3.803000  0.174240
0.76771  3.797400  0.169670
0.77491  3.791700  0.162980
0.78224  3.785000  0.156150
0.78971  3.777700  0.152280
0.79733  3.769600  0.146870
0.80510  3.760700  0.141170
0.81302  3.753300  0.139690
0.82109  3.748800  0.142540
0.82933  3.741500  0.136170
0.83774  3.735900  0.127900
0.84632  3.729800  0.123860
0.85507  3.724800  0.120770
0.86401  3.719300  0.119150
0.87314  3.713700  0.118780
0.88246  3.708000  0.115360
0.89198  3.702900  0.113280
0.90171  3.698300  0.119720
0.91166  3.695300  0.131680
0.92182  3.694200  0.118130
0.93222  3.693000  0.109860
0.94285  3.696000  0.107680
0.95373  3.691600  0.106880
0.96487  3.687300  0.106120
0.97626  3.683100  0.105400
0.98793  3.678900  0.104710
0.99988  3.674800  0.104030
