; From SOPRA S.A. http://www.sopra-sa.com/indices.htm
; Filename    Symbol               Range (nm)     Description
; GAAS546T    GaAs                275      999    Gallium Arsenide (Temp: 546 C)
; lambda/um       n         k
0.27583  3.370400  3.302200
0.27675  3.408700  3.272400
0.27768  3.436800  3.239200
0.27862  3.466600  3.209500
0.27956  3.490000  3.188300
0.28051  3.515800  3.149300
0.28146  3.546800  3.107800
0.28243  3.572800  3.071500
0.28339  3.596800  3.026400
0.28437  3.623900  2.988100
0.28535  3.648000  2.949200
0.28634  3.668900  2.912800
0.28734  3.685300  2.880700
0.28834  3.698600  2.843700
0.28935  3.702500  2.811500
0.29036  3.711200  2.772300
0.29139  3.717900  2.731300
0.29242  3.720400  2.687600
0.29346  3.726100  2.646600
0.29450  3.729600  2.608400
0.29555  3.731800  2.573000
0.29662  3.731100  2.540500
0.29768  3.738000  2.519700
0.29876  3.739900  2.496700
0.29984  3.739900  2.474800
0.30093  3.742000  2.450600
0.30203  3.743600  2.426400
0.30314  3.740400  2.400000
0.30426  3.737600  2.372400
0.30538  3.732800  2.345800
0.30651  3.725700  2.316400
0.30766  3.718800  2.292500
0.30880  3.717600  2.275900
0.30996  3.710900  2.256100
0.31113  3.706400  2.237400
0.31231  3.703900  2.217300
0.31349  3.698200  2.202200
0.31468  3.691400  2.186300
0.31589  3.687900  2.174100
0.31710  3.681700  2.158800
0.31832  3.672700  2.144500
0.31955  3.662600  2.130000
0.32079  3.654700  2.120300
0.32204  3.648700  2.109300
0.32330  3.648300  2.095300
0.32457  3.644300  2.083500
0.32585  3.639500  2.076300
0.32714  3.640300  2.068700
0.32844  3.643200  2.063800
0.32975  3.645400  2.057000
0.33107  3.646000  2.051400
0.33240  3.644200  2.041200
0.33374  3.643300  2.034600
0.33510  3.641500  2.024700
0.33646  3.638300  2.012100
0.33783  3.631000  2.002300
0.33922  3.624300  1.994800
0.34062  3.620500  1.987100
0.34203  3.616800  1.982700
0.34345  3.615700  1.978700
0.34488  3.613400  1.975400
0.34633  3.611300  1.971700
0.34778  3.610500  1.970300
0.34925  3.610100  1.969800
0.35074  3.610200  1.969100
0.35223  3.613400  1.967100
0.35374  3.614800  1.966000
0.35526  3.618000  1.963200
0.35679  3.620500  1.962400
0.35834  3.622500  1.960900
0.35990  3.625000  1.959900
0.36147  3.626800  1.958500
0.36306  3.629000  1.958400
0.36466  3.632000  1.959300
0.36628  3.636100  1.960000
0.36791  3.642100  1.961100
0.36955  3.647100  1.961900
0.37121  3.654400  1.962200
0.37289  3.660500  1.964100
0.37458  3.668800  1.964700
0.37628  3.676900  1.966000
0.37800  3.685200  1.966800
0.37974  3.693600  1.969000
0.38149  3.702900  1.971000
0.38326  3.713500  1.973200
0.38505  3.724100  1.977200
0.38685  3.735200  1.979300
0.38867  3.746900  1.981900
0.39050  3.759300  1.984800
0.39236  3.773400  1.987000
0.39423  3.787300  1.988400
0.39612  3.803200  1.989700
0.39803  3.819000  1.992600
0.39995  3.836800  1.996500
0.40190  3.856100  1.998500
0.40386  3.875300  2.001500
0.40584  3.896800  2.002200
0.40785  3.919000  2.003000
0.40987  3.942200  2.004200
0.41191  3.966700  2.003900
0.41397  3.991300  2.002300
0.41606  4.017800  2.000800
0.41816  4.045400  1.999800
0.42029  4.075500  1.997800
0.42244  4.107800  1.991900
0.42461  4.139700  1.984700
0.42680  4.172700  1.974200
0.42901  4.206700  1.961700
0.43125  4.239800  1.946900
0.43351  4.271900  1.930900
0.43580  4.303900  1.912800
0.43811  4.337000  1.892200
0.44044  4.368400  1.870200
0.44280  4.399700  1.846800
0.44519  4.430700  1.822000
0.44760  4.458500  1.796400
0.45004  4.486800  1.770100
0.45250  4.516400  1.742800
0.45499  4.544600  1.715300
0.45751  4.574600  1.685600
0.46006  4.605300  1.654100
0.46263  4.637300  1.618200
0.46524  4.667900  1.580600
0.46787  4.697900  1.539600
0.47053  4.725500  1.493700
0.47323  4.748000  1.445000
0.47595  4.769700  1.391700
0.47871  4.783300  1.336700
0.48150  4.792400  1.279800
0.48432  4.797100  1.221500
0.48717  4.796900  1.163300
0.49006  4.791000  1.105300
0.49298  4.780900  1.049300
0.49594  4.766600  0.994570
0.49893  4.749400  0.942470
0.50196  4.729800  0.894200
0.50503  4.708500  0.849140
0.50814  4.684800  0.808250
0.51128  4.662500  0.770490
0.51446  4.639900  0.737170
0.51768  4.614700  0.706050
0.52095  4.590900  0.676920
0.52425  4.567400  0.649910
0.52760  4.543300  0.624370
0.53099  4.520200  0.600860
0.53442  4.496700  0.579450
0.53790  4.473700  0.559520
0.54142  4.452400  0.540020
0.54499  4.431100  0.523330
0.54861  4.410400  0.507840
0.55227  4.390200  0.492360
0.55599  4.372300  0.477400
0.55975  4.354100  0.462890
0.56357  4.335800  0.449670
0.56744  4.318100  0.436710
0.57136  4.299800  0.426290
0.57534  4.282200  0.415700
0.57937  4.264400  0.406570
0.58346  4.246500  0.397280
0.58761  4.229500  0.387730
0.59181  4.212800  0.377490
0.59608  4.196100  0.368110
0.60041  4.179600  0.359130
0.60481  4.164500  0.350630
0.60926  4.149900  0.341680
0.61379  4.135000  0.333860
0.61838  4.121200  0.326400
0.62304  4.107000  0.319980
0.62777  4.093200  0.312960
0.63258  4.080600  0.306190
0.63746  4.067200  0.299070
0.64241  4.054400  0.293310
0.64744  4.042000  0.289050
0.65255  4.030500  0.284070
0.65775  4.019000  0.277470
0.66302  4.007500  0.275030
0.66838  3.996500  0.270680
0.67383  3.985300  0.267980
0.67937  3.975400  0.264630
0.68500  3.965700  0.261670
0.69073  3.956800  0.258050
0.69655  3.947800  0.255710
0.70247  3.938100  0.251690
0.70849  3.928500  0.248350
0.71461  3.918300  0.244280
0.72084  3.909700  0.240030
0.72719  3.901100  0.233320
0.73364  3.893800  0.227970
0.74021  3.886600  0.223130
0.74690  3.880000  0.215460
0.75371  3.875200  0.210970
0.76065  3.869400  0.211090
0.76771  3.862600  0.211010
0.77491  3.855100  0.212970
0.78224  3.846900  0.212880
0.78971  3.840300  0.210730
0.79733  3.832800  0.206580
0.80510  3.826600  0.199300
0.81302  3.820200  0.193010
0.82109  3.813700  0.188510
0.82933  3.806300  0.186660
0.83774  3.795400  0.181080
0.84632  3.785400  0.178360
0.85507  3.777300  0.173340
0.86401  3.770400  0.168730
0.87314  3.765800  0.164450
0.88246  3.760300  0.159730
0.89198  3.758000  0.159500
0.90171  3.754700  0.161210
0.91166  3.749400  0.161440
0.92182  3.744700  0.161670
0.93222  3.738600  0.159530
0.94285  3.733600  0.161580
0.95373  3.736200  0.158210
0.96487  3.730300  0.156030
0.97626  3.724600  0.153850
0.98793  3.718900  0.151690
0.99988  3.713300  0.149530
