; From SOPRA S.A. http://www.sopra-sa.com/indices.htm
; Filename    Symbol               Range (nm)     Description
; GAAS103T    GaAs                275      999    Gallium Arsenide (Temp: 103 C)
; lambda/um       n         k
0.27583  3.874700  3.028400
0.27675  3.905400  2.991000
0.27768  3.933500  2.951500
0.27862  3.964000  2.898900
0.27956  3.988200  2.845500
0.28051  4.005400  2.795900
0.28146  4.006200  2.737400
0.28243  3.998600  2.686100
0.28339  3.991000  2.633000
0.28437  3.995700  2.584400
0.28535  3.991700  2.536700
0.28634  3.978100  2.494000
0.28734  3.968500  2.458600
0.28834  3.960600  2.422900
0.28935  3.944700  2.383200
0.29036  3.930000  2.346200
0.29139  3.912600  2.312500
0.29242  3.894500  2.281600
0.29346  3.876900  2.251200
0.29450  3.862300  2.229700
0.29555  3.843600  2.202800
0.29662  3.823200  2.179500
0.29768  3.805600  2.157700
0.29876  3.790600  2.139800
0.29984  3.775400  2.116400
0.30093  3.760300  2.098500
0.30203  3.750400  2.084800
0.30314  3.732600  2.067700
0.30426  3.716700  2.053700
0.30538  3.705200  2.044500
0.30651  3.693800  2.035900
0.30766  3.678000  2.026400
0.30880  3.664800  2.017800
0.30996  3.653400  2.010500
0.31113  3.639200  1.998500
0.31231  3.628700  1.990800
0.31349  3.621300  1.988600
0.31468  3.607100  1.985200
0.31589  3.597900  1.981100
0.31710  3.592100  1.974600
0.31832  3.586600  1.972000
0.31955  3.579700  1.970400
0.32079  3.572700  1.970300
0.32204  3.566300  1.968400
0.32330  3.558900  1.964900
0.32457  3.554100  1.963800
0.32585  3.551100  1.965900
0.32714  3.543400  1.967200
0.32844  3.536300  1.965600
0.32975  3.534000  1.966700
0.33107  3.529800  1.966600
0.33240  3.525800  1.966300
0.33374  3.523500  1.966900
0.33510  3.523600  1.966600
0.33646  3.524000  1.967600
0.33783  3.526300  1.967300
0.33922  3.531900  1.967400
0.34062  3.533200  1.968800
0.34203  3.535600  1.973600
0.34345  3.539500  1.980600
0.34488  3.539800  1.983400
0.34633  3.542900  1.988200
0.34778  3.546500  1.995200
0.34925  3.550400  2.000700
0.35074  3.554400  2.007200
0.35223  3.558700  2.014000
0.35374  3.563200  2.019500
0.35526  3.569000  2.026600
0.35679  3.574500  2.034700
0.35834  3.579400  2.043800
0.35990  3.586600  2.052100
0.36147  3.596000  2.059400
0.36306  3.605900  2.066700
0.36466  3.615900  2.074100
0.36628  3.627600  2.082600
0.36791  3.638900  2.092800
0.36955  3.651600  2.102800
0.37121  3.667400  2.114700
0.37289  3.683200  2.126800
0.37458  3.700200  2.140200
0.37628  3.720000  2.153100
0.37800  3.740100  2.164800
0.37974  3.760700  2.177500
0.38149  3.784600  2.192800
0.38326  3.810800  2.207200
0.38505  3.839000  2.224100
0.38685  3.872600  2.242500
0.38867  3.912700  2.260500
0.39050  3.957900  2.277000
0.39236  4.009600  2.290200
0.39423  4.069000  2.298000
0.39612  4.130900  2.296200
0.39803  4.196600  2.284200
0.39995  4.263100  2.262200
0.40190  4.321600  2.230100
0.40386  4.374300  2.191900
0.40584  4.418600  2.152000
0.40785  4.454500  2.110900
0.40987  4.484000  2.074100
0.41191  4.508600  2.042600
0.41397  4.532700  2.017800
0.41606  4.557900  1.999400
0.41816  4.588100  1.987400
0.42029  4.628700  1.980200
0.42244  4.682100  1.971700
0.42461  4.751900  1.955400
0.42680  4.834400  1.923700
0.42901  4.922800  1.867100
0.43125  5.008400  1.785600
0.43351  5.077600  1.682900
0.43580  5.126700  1.566000
0.43811  5.147100  1.443100
0.44044  5.145000  1.327200
0.44280  5.127100  1.224000
0.44519  5.098800  1.132800
0.44760  5.064800  1.054600
0.45004  5.027800  0.986910
0.45250  4.989900  0.924370
0.45499  4.950800  0.870160
0.45751  4.910100  0.822580
0.46006  4.871100  0.780170
0.46263  4.831000  0.741430
0.46524  4.793600  0.706220
0.46787  4.757200  0.675310
0.47053  4.723400  0.644700
0.47323  4.690400  0.618080
0.47595  4.659000  0.593910
0.47871  4.627500  0.570300
0.48150  4.596600  0.549710
0.48432  4.566000  0.529950
0.48717  4.536400  0.512090
0.49006  4.507300  0.496730
0.49298  4.480000  0.480020
0.49594  4.453800  0.463770
0.49893  4.429600  0.446440
0.50196  4.404800  0.430440
0.50503  4.381100  0.417270
0.50814  4.358100  0.404980
0.51128  4.336500  0.392690
0.51446  4.315300  0.381920
0.51768  4.293700  0.372250
0.52095  4.272300  0.364890
0.52425  4.252700  0.355300
0.52760  4.233100  0.345950
0.53099  4.214300  0.336520
0.53442  4.195400  0.326140
0.53790  4.177800  0.318810
0.54142  4.161100  0.312020
0.54499  4.144800  0.306660
0.54861  4.128800  0.301210
0.55227  4.113300  0.296050
0.55599  4.098700  0.290680
0.55975  4.084300  0.285530
0.56357  4.070500  0.279090
0.56744  4.056900  0.273990
0.57136  4.043500  0.266880
0.57534  4.030400  0.262800
0.57937  4.018200  0.257220
0.58346  4.005300  0.253910
0.58761  3.992600  0.248740
0.59181  3.980200  0.245520
0.59608  3.968500  0.241050
0.60041  3.956300  0.237000
0.60481  3.944900  0.232180
0.60926  3.933900  0.229160
0.61379  3.923300  0.224890
0.61838  3.913500  0.221310
0.62304  3.903700  0.217240
0.62777  3.894200  0.213740
0.63258  3.884700  0.210360
0.63746  3.875000  0.207460
0.64241  3.866200  0.204350
0.64744  3.857500  0.199840
0.65255  3.849300  0.197240
0.65775  3.841700  0.196620
0.66302  3.834700  0.193250
0.66838  3.828100  0.191460
0.67383  3.821100  0.188880
0.67937  3.814800  0.184300
0.68500  3.808100  0.183460
0.69073  3.800900  0.182150
0.69655  3.795500  0.177730
0.70247  3.790000  0.170730
0.70849  3.784400  0.164960
0.71461  3.779000  0.155430
0.72084  3.772900  0.148150
0.72719  3.765500  0.141130
0.73364  3.758400  0.133450
0.74021  3.750600  0.129330
0.74690  3.743100  0.130320
0.75371  3.735000  0.130690
0.76065  3.727800  0.126680
0.76771  3.720600  0.124200
0.77491  3.714400  0.124550
0.78224  3.709000  0.122230
0.78971  3.700600  0.119600
0.79733  3.694000  0.113920
0.80510  3.688200  0.109030
0.81302  3.683300  0.109580
0.82109  3.677300  0.108140
0.82933  3.673500  0.106280
0.83774  3.670000  0.100540
0.84632  3.666200  0.098204
0.85507  3.663800  0.099867
0.86401  3.664000  0.096577
0.87314  3.663600  0.087309
0.88246  3.661700  0.078964
0.89198  3.657200  0.075725
0.90171  3.647500  0.081125
0.91166  3.633200  0.087667
0.92182  3.616800  0.092101
0.93222  3.596500  0.099545
0.94285  3.577300  0.106310
0.95373  3.572700  0.103770
0.96487  3.568100  0.101260
0.97626  3.563700  0.098798
0.98793  3.559400  0.096373
0.99988  3.555100  0.093985
