; From SOPRA S.A. http://www.sopra-sa.com/indices.htm
; Filename    Symbol               Range (nm)     Description
; GAAS320T    GaAs                275      999    Gallium Arsenide (Temp: 320 C)
; lambda/um       n         k
0.27583  3.661400  3.170500
0.27675  3.683700  3.138400
0.27768  3.723000  3.100900
0.27862  3.749000  3.064500
0.27956  3.768500  3.019200
0.28051  3.783400  2.978800
0.28146  3.790700  2.927000
0.28243  3.808900  2.877100
0.28339  3.818400  2.834500
0.28437  3.828400  2.794200
0.28535  3.829300  2.753200
0.28634  3.837000  2.719400
0.28734  3.839600  2.673900
0.28834  3.845300  2.638400
0.28935  3.847600  2.604900
0.29036  3.851000  2.567000
0.29139  3.848400  2.526100
0.29242  3.848500  2.485600
0.29346  3.848200  2.452300
0.29450  3.847100  2.419800
0.29555  3.835700  2.386500
0.29662  3.826600  2.363000
0.29768  3.816000  2.329000
0.29876  3.806900  2.307500
0.29984  3.798400  2.281600
0.30093  3.790300  2.260300
0.30203  3.776400  2.240800
0.30314  3.769500  2.218500
0.30426  3.762900  2.200500
0.30538  3.753000  2.182100
0.30651  3.736000  2.163700
0.30766  3.723600  2.147700
0.30880  3.711000  2.128600
0.30996  3.698500  2.114700
0.31113  3.690100  2.098200
0.31231  3.683300  2.086100
0.31349  3.675900  2.071100
0.31468  3.671900  2.055400
0.31589  3.663500  2.042900
0.31710  3.656000  2.037800
0.31832  3.647700  2.030400
0.31955  3.639300  2.024400
0.32079  3.628200  2.020300
0.32204  3.619900  2.015500
0.32330  3.611400  2.012500
0.32457  3.607300  2.003900
0.32585  3.606800  1.995400
0.32714  3.602200  1.987300
0.32844  3.598400  1.985000
0.32975  3.596800  1.985200
0.33107  3.593800  1.981500
0.33240  3.588800  1.977500
0.33374  3.585400  1.975500
0.33510  3.582300  1.969700
0.33646  3.579400  1.965500
0.33783  3.580800  1.959700
0.33922  3.581100  1.957600
0.34062  3.578100  1.957700
0.34203  3.578800  1.959400
0.34345  3.577000  1.961400
0.34488  3.574600  1.962500
0.34633  3.575200  1.966300
0.34778  3.576700  1.968300
0.34925  3.579100  1.968200
0.35074  3.582100  1.969600
0.35223  3.585900  1.971100
0.35374  3.588600  1.973500
0.35526  3.591300  1.976600
0.35679  3.594600  1.979500
0.35834  3.599200  1.983100
0.35990  3.603100  1.985500
0.36147  3.608500  1.990800
0.36306  3.615200  1.994300
0.36466  3.622500  1.998000
0.36628  3.629300  2.002800
0.36791  3.636600  2.007500
0.36955  3.644300  2.013300
0.37121  3.652700  2.020200
0.37289  3.661500  2.027600
0.37458  3.672600  2.034400
0.37628  3.682500  2.040000
0.37800  3.695100  2.046800
0.37974  3.708900  2.052200
0.38149  3.724000  2.057100
0.38326  3.740100  2.062200
0.38505  3.757000  2.068100
0.38685  3.775000  2.075600
0.38867  3.794100  2.083900
0.39050  3.813800  2.093300
0.39236  3.835400  2.102800
0.39423  3.858700  2.110900
0.39612  3.885700  2.118700
0.39803  3.915200  2.125600
0.39995  3.947800  2.131200
0.40190  3.982700  2.135500
0.40386  4.020700  2.138600
0.40584  4.060700  2.139300
0.40785  4.102600  2.136400
0.40987  4.145800  2.131000
0.41191  4.189600  2.121300
0.41397  4.233800  2.105600
0.41606  4.278000  2.086700
0.41816  4.320400  2.064300
0.42029  4.359600  2.039600
0.42244  4.396600  2.013000
0.42461  4.431700  1.986100
0.42680  4.464800  1.959300
0.42901  4.497600  1.933200
0.43125  4.530800  1.905900
0.43351  4.564400  1.880100
0.43580  4.600500  1.853300
0.43811  4.641600  1.825000
0.44044  4.686200  1.793800
0.44280  4.733200  1.758600
0.44519  4.782300  1.715000
0.44760  4.830000  1.664100
0.45004  4.874800  1.603100
0.45250  4.911900  1.533700
0.45499  4.938200  1.456700
0.45751  4.955200  1.376600
0.46006  4.960900  1.297600
0.46263  4.958600  1.220800
0.46524  4.948700  1.149700
0.46787  4.932800  1.082900
0.47053  4.911100  1.020000
0.47323  4.886000  0.963460
0.47595  4.857200  0.912660
0.47871  4.828400  0.863720
0.48150  4.796500  0.819320
0.48432  4.764700  0.778740
0.48717  4.734000  0.740930
0.49006  4.702400  0.707380
0.49298  4.672600  0.676070
0.49594  4.642800  0.645660
0.49893  4.613400  0.617880
0.50196  4.585300  0.591860
0.50503  4.556200  0.569690
0.50814  4.529200  0.546710
0.51128  4.501800  0.527420
0.51446  4.476300  0.508980
0.51768  4.451500  0.490930
0.52095  4.426700  0.475550
0.52425  4.404000  0.460030
0.52760  4.381300  0.444750
0.53099  4.360100  0.429940
0.53442  4.338900  0.417190
0.53790  4.317400  0.406420
0.54142  4.296700  0.395490
0.54499  4.277600  0.385090
0.54861  4.258800  0.375680
0.55227  4.240900  0.366820
0.55599  4.224100  0.357780
0.55975  4.207300  0.349410
0.56357  4.190900  0.340870
0.56744  4.175300  0.332740
0.57136  4.159500  0.325840
0.57534  4.143100  0.320890
0.57937  4.126900  0.315090
0.58346  4.112100  0.308140
0.58761  4.097000  0.301350
0.59181  4.083200  0.294540
0.59608  4.069300  0.287050
0.60041  4.055200  0.281910
0.60481  4.042400  0.274960
0.60926  4.030200  0.267950
0.61379  4.017500  0.262040
0.61838  4.004900  0.257130
0.62304  3.992900  0.252180
0.62777  3.981300  0.248080
0.63258  3.969300  0.245590
0.63746  3.958000  0.242480
0.64241  3.946900  0.239410
0.64744  3.936400  0.237460
0.65255  3.927500  0.232240
0.65775  3.918200  0.227370
0.66302  3.909600  0.224040
0.66838  3.900500  0.219910
0.67383  3.892700  0.215970
0.67937  3.884400  0.211650
0.68500  3.876400  0.208400
0.69073  3.868000  0.204210
0.69655  3.860700  0.201590
0.70247  3.852900  0.196410
0.70849  3.846200  0.192440
0.71461  3.839200  0.188680
0.72084  3.832600  0.185300
0.72719  3.825700  0.184480
0.73364  3.819500  0.183110
0.74021  3.813500  0.179450
0.74690  3.807300  0.177230
0.75371  3.802300  0.176900
0.76065  3.797600  0.176050
0.76771  3.792100  0.171110
0.77491  3.786500  0.161190
0.78224  3.779800  0.153960
0.78971  3.771800  0.147120
0.79733  3.763700  0.144000
0.80510  3.755500  0.139110
0.81302  3.745800  0.130440
0.82109  3.738200  0.126120
0.82933  3.731400  0.127000
0.83774  3.725100  0.125980
0.84632  3.719700  0.122850
0.85507  3.715700  0.119340
0.86401  3.710200  0.119250
0.87314  3.704800  0.117670
0.88246  3.700200  0.117660
0.89198  3.696500  0.116340
0.90171  3.695300  0.118400
0.91166  3.691500  0.114800
0.92182  3.687600  0.116110
0.93222  3.687200  0.111610
0.94285  3.687000  0.108900
0.95373  3.680400  0.115540
0.96487  3.675800  0.114550
0.97626  3.671200  0.113590
0.98793  3.666700  0.112640
0.99988  3.662300  0.111710
