; From SOPRA S.A. http://www.sopra-sa.com/indices.htm
; Filename    Symbol               Range (nm)     Description
; GAAS579T    GaAs                275      999    Gallium Arsenide (Temp: 579 C)
; lambda/um       n         k
0.27583  3.310800  3.315100
0.27675  3.338400  3.276800
0.27768  3.369200  3.241700
0.27862  3.401400  3.204100
0.27956  3.434000  3.171600
0.28051  3.463100  3.139100
0.28146  3.501700  3.107400
0.28243  3.531000  3.074200
0.28339  3.552200  3.042100
0.28437  3.570600  3.006000
0.28535  3.587900  2.971400
0.28634  3.611400  2.932200
0.28734  3.631200  2.895500
0.28834  3.651100  2.853100
0.28935  3.668000  2.816800
0.29036  3.684900  2.781900
0.29139  3.698300  2.748700
0.29242  3.708800  2.716700
0.29346  3.717100  2.683400
0.29450  3.721400  2.651100
0.29555  3.727300  2.620600
0.29662  3.732800  2.590900
0.29768  3.736400  2.560900
0.29876  3.740800  2.529600
0.29984  3.741400  2.502600
0.30093  3.743600  2.470100
0.30203  3.744000  2.443500
0.30314  3.743600  2.416900
0.30426  3.744600  2.387700
0.30538  3.742700  2.362000
0.30651  3.739600  2.336100
0.30766  3.732800  2.314000
0.30880  3.728100  2.293900
0.30996  3.724300  2.274700
0.31113  3.717000  2.254900
0.31231  3.713000  2.236100
0.31349  3.708000  2.220800
0.31468  3.703200  2.204300
0.31589  3.700000  2.187800
0.31710  3.698600  2.172600
0.31832  3.693600  2.155000
0.31955  3.684300  2.140400
0.32079  3.678700  2.126500
0.32204  3.671900  2.113400
0.32330  3.664000  2.100100
0.32457  3.658600  2.088200
0.32585  3.654100  2.076800
0.32714  3.650900  2.066300
0.32844  3.649700  2.057900
0.32975  3.651200  2.049500
0.33107  3.649200  2.044200
0.33240  3.647500  2.033300
0.33374  3.646400  2.028500
0.33510  3.646800  2.020000
0.33646  3.643900  2.010900
0.33783  3.642100  2.000900
0.33922  3.640700  1.992500
0.34062  3.639800  1.984400
0.34203  3.638800  1.978300
0.34345  3.637900  1.973500
0.34488  3.636700  1.972600
0.34633  3.637200  1.966900
0.34778  3.636100  1.967500
0.34925  3.636400  1.964100
0.35074  3.634200  1.962600
0.35223  3.634800  1.959300
0.35374  3.636500  1.956800
0.35526  3.638300  1.955000
0.35679  3.640200  1.953300
0.35834  3.643400  1.951800
0.35990  3.646600  1.950800
0.36147  3.648700  1.951100
0.36306  3.650300  1.950900
0.36466  3.652600  1.950300
0.36628  3.656000  1.949700
0.36791  3.661200  1.948800
0.36955  3.666700  1.949200
0.37121  3.672500  1.950500
0.37289  3.678100  1.951200
0.37458  3.684500  1.952600
0.37628  3.691800  1.953200
0.37800  3.698100  1.955800
0.37974  3.705500  1.958200
0.38149  3.713600  1.959600
0.38326  3.722700  1.961300
0.38505  3.732500  1.964300
0.38685  3.742800  1.967400
0.38867  3.753400  1.970800
0.39050  3.764200  1.973500
0.39236  3.776200  1.975300
0.39423  3.790100  1.976100
0.39612  3.804000  1.978800
0.39803  3.820000  1.981400
0.39995  3.835400  1.983600
0.40190  3.852600  1.986500
0.40386  3.870700  1.988900
0.40584  3.889800  1.991300
0.40785  3.910100  1.992300
0.40987  3.931100  1.993100
0.41191  3.953200  1.993200
0.41397  3.975900  1.993100
0.41606  4.000500  1.992400
0.41816  4.026200  1.990900
0.42029  4.052900  1.987500
0.42244  4.081800  1.982900
0.42461  4.112000  1.976300
0.42680  4.143100  1.967800
0.42901  4.175600  1.957200
0.43125  4.208000  1.944900
0.43351  4.240100  1.931500
0.43580  4.272400  1.916100
0.43811  4.304500  1.897600
0.44044  4.335300  1.877700
0.44280  4.366200  1.856200
0.44519  4.396200  1.833100
0.44760  4.425700  1.809300
0.45004  4.454200  1.784300
0.45250  4.483200  1.758200
0.45499  4.511100  1.731200
0.45751  4.539500  1.703100
0.46006  4.567600  1.674000
0.46263  4.595800  1.642700
0.46524  4.623800  1.610400
0.46787  4.652200  1.575400
0.47053  4.678900  1.535900
0.47323  4.705300  1.494300
0.47595  4.728900  1.448100
0.47871  4.749500  1.397600
0.48150  4.766800  1.343500
0.48432  4.779400  1.286600
0.48717  4.786800  1.230600
0.49006  4.789900  1.172600
0.49298  4.787600  1.115200
0.49594  4.780600  1.058100
0.49893  4.768500  1.003900
0.50196  4.753300  0.953290
0.50503  4.734400  0.905340
0.50814  4.714000  0.860460
0.51128  4.692800  0.818940
0.51446  4.671000  0.780320
0.51768  4.648500  0.745020
0.52095  4.626300  0.710570
0.52425  4.603600  0.678320
0.52760  4.580600  0.648780
0.53099  4.558300  0.622300
0.53442  4.535300  0.597760
0.53790  4.512600  0.575590
0.54142  4.491200  0.555210
0.54499  4.470000  0.536980
0.54861  4.449300  0.518450
0.55227  4.428900  0.501580
0.55599  4.409100  0.484750
0.55975  4.389500  0.469510
0.56357  4.370500  0.454500
0.56744  4.352700  0.439200
0.57136  4.334500  0.424510
0.57534  4.316800  0.411820
0.57937  4.299700  0.398910
0.58346  4.281500  0.388510
0.58761  4.263700  0.376190
0.59181  4.247200  0.364380
0.59608  4.230200  0.355050
0.60041  4.213400  0.347650
0.60481  4.196900  0.338370
0.60926  4.181000  0.329590
0.61379  4.165300  0.322130
0.61838  4.150200  0.315820
0.62304  4.135400  0.308430
0.62777  4.121300  0.300640
0.63258  4.108100  0.291710
0.63746  4.095700  0.282950
0.64241  4.083100  0.276770
0.64744  4.070400  0.272030
0.65255  4.058200  0.265980
0.65775  4.046600  0.260860
0.66302  4.035200  0.257090
0.66838  4.024000  0.253820
0.67383  4.013400  0.249550
0.67937  4.002600  0.246790
0.68500  3.992400  0.243010
0.69073  3.982100  0.237030
0.69655  3.972900  0.231040
0.70247  3.963400  0.227660
0.70849  3.953900  0.222440
0.71461  3.945200  0.216670
0.72084  3.936200  0.212210
0.72719  3.927400  0.207790
0.73364  3.919300  0.200530
0.74021  3.910600  0.201010
0.74690  3.902200  0.194900
0.75371  3.894500  0.189470
0.76065  3.887900  0.187030
0.76771  3.881700  0.185450
0.77491  3.875400  0.183650
0.78224  3.869100  0.181010
0.78971  3.862200  0.180000
0.79733  3.855900  0.175100
0.80510  3.849800  0.169550
0.81302  3.842900  0.165820
0.82109  3.834900  0.158470
0.82933  3.828300  0.154030
0.83774  3.822000  0.151500
0.84632  3.817000  0.148490
0.85507  3.811400  0.145110
0.86401  3.805400  0.142620
0.87314  3.799100  0.138170
0.88246  3.793200  0.131130
0.89198  3.787300  0.131690
0.90171  3.780600  0.124550
0.91166  3.774400  0.119100
0.92182  3.768700  0.116610
0.93222  3.763800  0.118990
0.94285  3.759100  0.118910
0.95373  3.750000  0.118380
0.96487  3.745000  0.116440
0.97626  3.740100  0.114590
0.98793  3.735300  0.112710
0.99988  3.730600  0.110890
