; From SOPRA S.A. http://www.sopra-sa.com/indices.htm
; Filename    Symbol               Range (nm)     Description
; GAAS465T    GaAs                275      999    Gallium Arsenide (Temp: 465 C)
; lambda/um       n         k
0.27583  3.451400  3.276900
0.27675  3.482000  3.236700
0.27768  3.507500  3.196500
0.27862  3.541800  3.159100
0.27956  3.573700  3.117300
0.28051  3.594600  3.074600
0.28146  3.619800  3.040200
0.28243  3.646600  3.006100
0.28339  3.674700  2.972000
0.28437  3.694300  2.939400
0.28535  3.715500  2.903300
0.28634  3.729300  2.863600
0.28734  3.743600  2.826700
0.28834  3.757000  2.789400
0.28935  3.766900  2.743100
0.29036  3.772300  2.705100
0.29139  3.773100  2.660900
0.29242  3.777600  2.627100
0.29346  3.783200  2.596700
0.29450  3.777000  2.570500
0.29555  3.773400  2.532300
0.29662  3.773900  2.496300
0.29768  3.772300  2.461500
0.29876  3.776200  2.426000
0.29984  3.775900  2.394100
0.30093  3.770600  2.368500
0.30203  3.762600  2.336600
0.30314  3.754900  2.311100
0.30426  3.747700  2.287500
0.30538  3.737000  2.267000
0.30651  3.730100  2.243000
0.30766  3.726700  2.223500
0.30880  3.720100  2.204900
0.30996  3.713800  2.189600
0.31113  3.705900  2.176200
0.31231  3.695800  2.161700
0.31349  3.689400  2.145100
0.31468  3.681000  2.128500
0.31589  3.672000  2.117200
0.31710  3.662900  2.103100
0.31832  3.657300  2.090800
0.31955  3.655800  2.082100
0.32079  3.650500  2.073000
0.32204  3.650400  2.064300
0.32330  3.648400  2.054400
0.32457  3.642600  2.040600
0.32585  3.641100  2.029800
0.32714  3.633100  2.027400
0.32844  3.624200  2.025500
0.32975  3.617200  2.020300
0.33107  3.612200  2.017400
0.33240  3.609700  2.012300
0.33374  3.605900  2.006100
0.33510  3.606300  2.001400
0.33646  3.605000  1.993200
0.33783  3.604000  1.983200
0.33922  3.605800  1.977400
0.34062  3.602500  1.977400
0.34203  3.602500  1.973300
0.34345  3.602100  1.968800
0.34488  3.601200  1.965200
0.34633  3.601800  1.960800
0.34778  3.601500  1.959900
0.34925  3.601500  1.960400
0.35074  3.602400  1.961300
0.35223  3.605600  1.961100
0.35374  3.606500  1.963100
0.35526  3.607600  1.962700
0.35679  3.609400  1.963100
0.35834  3.611600  1.964200
0.35990  3.613700  1.966500
0.36147  3.617300  1.965300
0.36306  3.621100  1.965400
0.36466  3.625800  1.966900
0.36628  3.632000  1.969100
0.36791  3.639400  1.971600
0.36955  3.645200  1.975200
0.37121  3.651700  1.977000
0.37289  3.659300  1.979400
0.37458  3.668200  1.981500
0.37628  3.677200  1.983800
0.37800  3.685700  1.984600
0.37974  3.696000  1.987300
0.38149  3.705700  1.988900
0.38326  3.717700  1.993600
0.38505  3.729500  1.998200
0.38685  3.740700  2.002800
0.38867  3.754000  2.007600
0.39050  3.769000  2.012700
0.39236  3.785500  2.016200
0.39423  3.802500  2.020100
0.39612  3.820600  2.024700
0.39803  3.841100  2.028000
0.39995  3.861600  2.031300
0.40190  3.885800  2.035900
0.40386  3.910200  2.037500
0.40584  3.935500  2.039100
0.40785  3.963200  2.040600
0.40987  3.991800  2.041000
0.41191  4.022200  2.038800
0.41397  4.052900  2.036700
0.41606  4.087500  2.033500
0.41816  4.123000  2.026600
0.42029  4.157700  2.018100
0.42244  4.195300  2.006400
0.42461  4.231700  1.991900
0.42680  4.268000  1.975000
0.42901  4.304300  1.957100
0.43125  4.339100  1.936600
0.43351  4.372200  1.914500
0.43580  4.404500  1.892000
0.43811  4.438600  1.866200
0.44044  4.469400  1.839600
0.44280  4.500200  1.812800
0.44519  4.531800  1.786200
0.44760  4.562800  1.759000
0.45004  4.595500  1.730200
0.45250  4.630100  1.698300
0.45499  4.664700  1.663700
0.45751  4.699500  1.623400
0.46006  4.733500  1.577800
0.46263  4.765400  1.526000
0.46524  4.792500  1.472400
0.46787  4.816900  1.413700
0.47053  4.835100  1.352200
0.47323  4.846100  1.289900
0.47595  4.850800  1.226700
0.47871  4.849300  1.163200
0.48150  4.841100  1.101300
0.48432  4.826600  1.041100
0.48717  4.807700  0.984440
0.49006  4.786600  0.931610
0.49298  4.764100  0.882230
0.49594  4.739000  0.837730
0.49893  4.713600  0.794790
0.50196  4.688700  0.757290
0.50503  4.661800  0.722930
0.50814  4.634500  0.691620
0.51128  4.607800  0.662280
0.51446  4.580800  0.635250
0.51768  4.553600  0.611120
0.52095  4.528200  0.587870
0.52425  4.503800  0.565430
0.52760  4.479700  0.545840
0.53099  4.456900  0.525650
0.53442  4.435300  0.506540
0.53790  4.412800  0.489320
0.54142  4.390900  0.473660
0.54499  4.371200  0.458560
0.54861  4.350800  0.446650
0.55227  4.331500  0.434570
0.55599  4.313500  0.422160
0.55975  4.296400  0.409980
0.56357  4.278900  0.399850
0.56744  4.261800  0.390500
0.57136  4.243900  0.381040
0.57534  4.225900  0.371680
0.57937  4.208600  0.362760
0.58346  4.192100  0.354420
0.58761  4.175300  0.348070
0.59181  4.159500  0.338210
0.59608  4.144600  0.330120
0.60041  4.130200  0.321650
0.60481  4.115500  0.313680
0.60926  4.101200  0.306930
0.61379  4.086800  0.300440
0.61838  4.072600  0.293260
0.62304  4.059600  0.285940
0.62777  4.047100  0.278780
0.63258  4.034900  0.274340
0.63746  4.023100  0.269010
0.64241  4.011100  0.266920
0.64744  4.000100  0.263050
0.65255  3.989000  0.257510
0.65775  3.977700  0.253150
0.66302  3.967200  0.251420
0.66838  3.956000  0.248830
0.67383  3.946600  0.244260
0.67937  3.937200  0.243740
0.68500  3.928900  0.242340
0.69073  3.919600  0.239450
0.69655  3.910900  0.237900
0.70247  3.902700  0.232810
0.70849  3.894700  0.228530
0.71461  3.885600  0.222510
0.72084  3.876300  0.218360
0.72719  3.867200  0.215560
0.73364  3.860300  0.209000
0.74021  3.854000  0.214610
0.74690  3.847400  0.210640
0.75371  3.841500  0.203330
0.76065  3.834400  0.199210
0.76771  3.826700  0.193310
0.77491  3.821100  0.193290
0.78224  3.814900  0.191680
0.78971  3.809600  0.188250
0.79733  3.803700  0.188260
0.80510  3.801100  0.182680
0.81302  3.794900  0.183190
0.82109  3.788100  0.172660
0.82933  3.784000  0.163330
0.83774  3.778000  0.156620
0.84632  3.771300  0.149560
0.85507  3.765100  0.146790
0.86401  3.757500  0.145630
0.87314  3.752800  0.143120
0.88246  3.746000  0.146620
0.89198  3.741000  0.142600
0.90171  3.731600  0.140460
0.91166  3.726900  0.136650
0.92182  3.721800  0.129510
0.93222  3.718900  0.123150
0.94285  3.715100  0.128950
0.95373  3.710000  0.127150
0.96487  3.705000  0.125370
0.97626  3.700100  0.123620
0.98793  3.695300  0.121900
0.99988  3.690600  0.120210
