; From SOPRA S.A. http://www.sopra-sa.com/indices.htm
; Filename    Symbol               Range (nm)     Description
; GAAS515T    GaAs                275      999    Gallium Arsenide (Temp: 515 C)
; lambda/um       n         k
0.27583  3.407000  3.298200
0.27675  3.436900  3.265700
0.27768  3.466800  3.221900
0.27862  3.501500  3.180200
0.27956  3.525900  3.145700
0.28051  3.558900  3.102400
0.28146  3.593200  3.067600
0.28243  3.630100  3.027100
0.28339  3.663000  2.988400
0.28437  3.689800  2.955700
0.28535  3.705100  2.921300
0.28634  3.712700  2.885000
0.28734  3.722800  2.842700
0.28834  3.728600  2.801400
0.28935  3.730700  2.764200
0.29036  3.736900  2.721400
0.29139  3.743600  2.682900
0.29242  3.753400  2.645100
0.29346  3.759200  2.612600
0.29450  3.765200  2.585900
0.29555  3.767600  2.556200
0.29662  3.767600  2.522600
0.29768  3.767000  2.490100
0.29876  3.762500  2.462700
0.29984  3.758300  2.435500
0.30093  3.757400  2.410200
0.30203  3.755500  2.384600
0.30314  3.754000  2.356600
0.30426  3.748200  2.332000
0.30538  3.744900  2.308900
0.30651  3.741300  2.284500
0.30766  3.737100  2.262500
0.30880  3.733400  2.242500
0.30996  3.727000  2.225100
0.31113  3.717500  2.208000
0.31231  3.711300  2.191500
0.31349  3.703400  2.175800
0.31468  3.696100  2.160400
0.31589  3.687700  2.144100
0.31710  3.683000  2.126200
0.31832  3.677600  2.112500
0.31955  3.675700  2.102400
0.32079  3.670500  2.089800
0.32204  3.662500  2.076000
0.32330  3.652300  2.066800
0.32457  3.644700  2.056000
0.32585  3.639300  2.046100
0.32714  3.637700  2.036100
0.32844  3.634300  2.029300
0.32975  3.633000  2.022800
0.33107  3.631900  2.020100
0.33240  3.633000  2.016600
0.33374  3.631300  2.011000
0.33510  3.630300  2.005300
0.33646  3.627700  1.999600
0.33783  3.625300  1.991400
0.33922  3.626000  1.983500
0.34062  3.625600  1.978100
0.34203  3.623500  1.976500
0.34345  3.622800  1.972900
0.34488  3.622200  1.969900
0.34633  3.621600  1.967200
0.34778  3.620700  1.964300
0.34925  3.621200  1.963600
0.35074  3.621700  1.961100
0.35223  3.623600  1.959500
0.35374  3.625800  1.959400
0.35526  3.627500  1.959000
0.35679  3.629800  1.958000
0.35834  3.634100  1.957000
0.35990  3.637400  1.956400
0.36147  3.641300  1.957800
0.36306  3.644600  1.957800
0.36466  3.649300  1.958800
0.36628  3.654500  1.959300
0.36791  3.660600  1.960800
0.36955  3.666500  1.963100
0.37121  3.673500  1.964800
0.37289  3.681200  1.966400
0.37458  3.689700  1.969800
0.37628  3.697500  1.973200
0.37800  3.705000  1.976900
0.37974  3.713000  1.979300
0.38149  3.722400  1.981900
0.38326  3.733300  1.983600
0.38505  3.743500  1.986700
0.38685  3.755200  1.988700
0.38867  3.767700  1.990800
0.39050  3.782100  1.992200
0.39236  3.797500  1.995000
0.39423  3.813400  1.998000
0.39612  3.830000  1.999800
0.39803  3.848100  2.002600
0.39995  3.867800  2.005000
0.40190  3.888300  2.007500
0.40386  3.910300  2.009900
0.40584  3.933600  2.011000
0.40785  3.957400  2.012200
0.40987  3.983000  2.011200
0.41191  4.008700  2.010000
0.41397  4.036000  2.007500
0.41606  4.064900  2.003100
0.41816  4.094900  1.999200
0.42029  4.126300  1.992300
0.42244  4.158600  1.984100
0.42461  4.192400  1.972000
0.42680  4.226400  1.959900
0.42901  4.261800  1.944300
0.43125  4.297000  1.925500
0.43351  4.330400  1.906100
0.43580  4.362800  1.884600
0.43811  4.395200  1.861200
0.44044  4.426100  1.837200
0.44280  4.455200  1.811300
0.44519  4.483900  1.785200
0.44760  4.511800  1.759800
0.45004  4.540400  1.733500
0.45250  4.570900  1.703400
0.45499  4.600400  1.671900
0.45751  4.630100  1.638300
0.46006  4.659400  1.602400
0.46263  4.689300  1.562200
0.46524  4.717500  1.519200
0.46787  4.743600  1.472900
0.47053  4.767600  1.422800
0.47323  4.786300  1.370200
0.47595  4.801000  1.313000
0.47871  4.809500  1.255000
0.48150  4.811100  1.195800
0.48432  4.806900  1.137300
0.48717  4.798800  1.079500
0.49006  4.786400  1.023600
0.49298  4.771400  0.970770
0.49594  4.752400  0.920280
0.49893  4.731400  0.874120
0.50196  4.707900  0.831780
0.50503  4.684100  0.792280
0.50814  4.659300  0.757770
0.51128  4.634400  0.725240
0.51446  4.609000  0.695740
0.51768  4.585200  0.666680
0.52095  4.561200  0.640380
0.52425  4.538700  0.614900
0.52760  4.515000  0.591730
0.53099  4.492500  0.570480
0.53442  4.470000  0.550370
0.53790  4.448700  0.529830
0.54142  4.426900  0.513220
0.54499  4.406900  0.497340
0.54861  4.386400  0.484350
0.55227  4.367200  0.471110
0.55599  4.348300  0.458230
0.55975  4.330200  0.446080
0.56357  4.311600  0.433980
0.56744  4.294600  0.421460
0.57136  4.277700  0.410020
0.57534  4.261500  0.398220
0.57937  4.244500  0.390140
0.58346  4.229500  0.379750
0.58761  4.213600  0.371760
0.59181  4.197600  0.363070
0.59608  4.181900  0.355070
0.60041  4.166600  0.346790
0.60481  4.151900  0.337030
0.60926  4.138000  0.328170
0.61379  4.123800  0.321010
0.61838  4.109500  0.314240
0.62304  4.095700  0.308780
0.62777  4.082700  0.302520
0.63258  4.070500  0.297860
0.63746  4.057500  0.293360
0.64241  4.045900  0.288390
0.64744  4.034200  0.281750
0.65255  4.023300  0.277370
0.65775  4.013200  0.271000
0.66302  4.002700  0.266400
0.66838  3.993300  0.263090
0.67383  3.984200  0.260400
0.67937  3.974100  0.256500
0.68500  3.964800  0.251340
0.69073  3.954600  0.246960
0.69655  3.945300  0.242070
0.70247  3.934600  0.238380
0.70849  3.925100  0.235580
0.71461  3.916900  0.233840
0.72084  3.908100  0.228010
0.72719  3.901300  0.222220
0.73364  3.894400  0.216900
0.74021  3.887300  0.210050
0.74690  3.880700  0.206370
0.75371  3.872800  0.207920
0.76065  3.865600  0.203310
0.76771  3.857800  0.202980
0.77491  3.850300  0.200290
0.78224  3.843900  0.198790
0.78971  3.836900  0.190820
0.79733  3.831000  0.185090
0.80510  3.824600  0.178340
0.81302  3.819700  0.178630
0.82109  3.811500  0.174560
0.82933  3.802700  0.173970
0.83774  3.794900  0.170400
0.84632  3.786400  0.172070
0.85507  3.778900  0.166500
0.86401  3.772600  0.161950
0.87314  3.766400  0.157750
0.88246  3.760500  0.157340
0.89198  3.755700  0.152620
0.90171  3.749700  0.154660
0.91166  3.743000  0.145420
0.92182  3.737300  0.147110
0.93222  3.730300  0.148620
0.94285  3.723800  0.150200
0.95373  3.718500  0.147540
0.96487  3.713300  0.144910
0.97626  3.708200  0.142300
0.98793  3.703200  0.139720
0.99988  3.698300  0.137160
