; From SOPRA S.A. http://www.sopra-sa.com/indices.htm
; Filename    Symbol               Range (nm)     Description
; GASB        GaSb                206      991    Gallium Antimonide
; lambda/um       n         k
0.20664  0.935000  2.416000
0.20838  0.962625  2.430000
0.21014  0.985000  2.444000
0.21194  1.004125  2.459750
0.21377  1.022000  2.479000
0.21563  1.040250  2.505000
0.21752  1.062000  2.535000
0.21944  1.091687  2.569312
0.22140  1.127000  2.602000
0.22340  1.168125  2.627187
0.22543  1.212000  2.645000
0.22750  1.257938  2.652625
0.22960  1.299000  2.653000
0.23175  1.326750  2.645562
0.23393  1.345000  2.638000
0.23616  1.353250  2.638063
0.23843  1.356000  2.645000
0.24075  1.357000  2.661312
0.24311  1.358000  2.685000
0.24552  1.362500  2.715625
0.24797  1.369000  2.751000
0.25048  1.377375  2.787938
0.25303  1.387000  2.829000
0.25564  1.396375  2.875438
0.25830  1.408000  2.928000
0.26102  1.423625  2.988125
0.26380  1.444000  3.055000
0.26663  1.470562  3.127937
0.26953  1.503000  3.208000
0.27249  1.539625  3.294812
0.27552  1.586000  3.392000
0.27862  1.643063  3.503063
0.28178  1.723000  3.628000
0.28502  1.831251  3.777313
0.28834  1.989000  3.923000
0.29173  2.236000  4.054563
0.29520  2.522000  4.130000
0.29876  2.822436  4.086750
0.30240  3.100000  3.976000
0.30614  3.300499  3.819876
0.30996  3.450000  3.643000
0.31389  3.551813  3.478063
0.31791  3.620000  3.323000
0.32204  3.668187  3.188937
0.32628  3.701000  3.069000
0.33063  3.727937  2.960375
0.33510  3.748000  2.862000
0.33969  3.763250  2.772125
0.34440  3.774000  2.690000
0.34925  3.780563  2.613938
0.35424  3.785000  2.545000
0.35938  3.789313  2.485375
0.36466  3.794000  2.430000
0.37011  3.802063  2.374125
0.37571  3.808000  2.319000
0.38149  3.807000  2.262312
0.38745  3.800000  2.210000
0.39360  3.784625  2.166750
0.39995  3.766000  2.134000
0.40651  3.747125  2.116000
0.41328  3.732000  2.109000
0.42029  3.725875  2.111188
0.42754  3.728000  2.121000
0.43504  3.739000  2.136375
0.44280  3.760000  2.157000
0.45086  3.790750  2.181937
0.45920  3.836000  2.211000
0.46787  3.894250  2.248562
0.47687  3.984000  2.280000
0.48622  4.144688  2.307000
0.49594  4.312000  2.285000
0.50606  4.434312  2.134625
0.51660  4.513000  1.962000
0.52760  4.513250  1.857937
0.53907  4.492000  1.789000
0.55105  4.493688  1.753688
0.56357  4.521000  1.747000
0.57668  4.580774  1.798937
0.59041  4.705000  1.803000
0.60481  5.026639  1.775021
0.61993  5.249600  1.378000
0.63582  5.212387  1.062446
0.65255  5.043500  0.829000
0.67019  4.931787  0.693563
0.68881  4.824700  0.611000
0.70849  4.734800  0.538688
0.72932  4.655600  0.485000
0.75143  4.587956  0.447125
0.77491  4.522400  0.416000
0.79990  4.446598  0.379006
0.82657  4.370000  0.344000
0.85507  4.296607  0.313723
0.88561  4.230422  0.290912
0.91841  4.175450  0.278307
0.95373  4.135691  0.278648
0.99188  4.115150  0.294672
