; From SOPRA S.A. http://www.sopra-sa.com/indices.htm
; Filename    Symbol               Range (nm)     Description
; HGCDTE0     HgTe                200      900    Mercury Cadmium Telluride (0% Cd)
; lambda/um       n         k
0.20000  1.435000  1.755000
0.20543  1.435000  1.748420
0.21085  1.437650  1.709160
0.21628  1.418240  1.735240
0.22171  1.413610  1.795930
0.22713  1.433680  1.870040
0.23256  1.484090  1.949610
0.23798  1.552460  2.017150
0.24341  1.625160  2.080220
0.24884  1.720180  2.147280
0.25426  1.841850  2.188640
0.25969  1.968380  2.201860
0.26512  2.093380  2.191920
0.27054  2.211850  2.156710
0.27597  2.313910  2.096840
0.28140  2.390150  2.022660
0.28682  2.439570  1.944540
0.29225  2.467880  1.875830
0.29767  2.480270  1.813490
0.30310  2.479350  1.765490
0.30853  2.474460  1.731650
0.31395  2.469690  1.708870
0.31938  2.467600  1.693040
0.32481  2.467000  1.682290
0.33023  2.467000  1.675240
0.33566  2.467870  1.672260
0.34109  2.469910  1.671040
0.34651  2.474010  1.674010
0.35194  2.480150  1.679140
0.35736  2.486520  1.686020
0.36279  2.494670  1.695610
0.36822  2.504890  1.705890
0.37364  2.517050  1.718260
0.37907  2.530680  1.732680
0.38450  2.545470  1.747470
0.38992  2.563400  1.763380
0.39535  2.582100  1.780420
0.40078  2.604150  1.798520
0.40620  2.628940  1.817560
0.41163  2.656300  1.837420
0.41705  2.686020  1.858010
0.42248  2.720530  1.879080
0.42791  2.761090  1.900460
0.43333  2.808290  1.920790
0.43876  2.863220  1.937020
0.44419  2.928630  1.944610
0.44961  2.998170  1.936070
0.45504  3.062370  1.910810
0.46047  3.113520  1.876550
0.46589  3.151820  1.839550
0.47132  3.181100  1.803050
0.47674  3.204020  1.769200
0.48217  3.220220  1.740850
0.48760  3.233420  1.717100
0.49302  3.244530  1.696780
0.49845  3.254400  1.679670
0.50388  3.264060  1.666290
0.50930  3.274030  1.656550
0.51473  3.284310  1.649810
0.52016  3.295020  1.643650
0.52558  3.307700  1.641000
0.53101  3.321870  1.640190
0.53643  3.336440  1.642310
0.54186  3.354790  1.645570
0.54729  3.375660  1.649480
0.55271  3.399780  1.659220
0.55814  3.427770  1.668860
0.56357  3.463150  1.679690
0.56899  3.506650  1.690810
0.57442  3.562580  1.698260
0.57984  3.629690  1.695900
0.58527  3.704510  1.675030
0.59070  3.775910  1.632050
0.59612  3.834090  1.573200
0.60155  3.864420  1.517360
0.60698  3.888520  1.447780
0.61240  3.916710  1.383090
0.61783  3.924750  1.326760
0.62326  3.928680  1.276130
0.62868  3.929000  1.228290
0.63411  3.924940  1.184650
0.63953  3.920320  1.145140
0.64496  3.913930  1.108680
0.65039  3.906880  1.075490
0.65581  3.898710  1.044760
0.66124  3.889430  1.015870
0.66667  3.880780  0.989461
0.67209  3.870920  0.966358
0.67752  3.862540  0.943031
0.68295  3.853390  0.921973
0.68837  3.844270  0.902431
0.69380  3.835740  0.883676
0.69922  3.827210  0.865847
0.70465  3.818890  0.849475
0.71008  3.811110  0.834395
0.71550  3.803790  0.820165
0.72093  3.796560  0.805550
0.72636  3.790020  0.791565
0.73178  3.783490  0.778181
0.73721  3.776620  0.765542
0.74264  3.770440  0.753911
0.74806  3.763830  0.743857
0.75349  3.756550  0.735717
0.75891  3.750560  0.727487
0.76434  3.744760  0.719313
0.76977  3.739080  0.711236
0.77519  3.733500  0.702709
0.78062  3.727850  0.694634
0.78605  3.721750  0.688963
0.79147  3.716410  0.681617
0.79690  3.711690  0.672888
0.80233  3.706570  0.665891
0.80775  3.701250  0.659674
0.81318  3.695030  0.656961
0.81860  3.689830  0.651896
0.82403  3.686510  0.642482
0.82946  3.684800  0.638151
0.83488  3.684430  0.638063
0.84031  3.684060  0.637974
0.84574  3.683690  0.637886
0.85116  3.683320  0.637797
0.85659  3.682950  0.637709
0.86202  3.682580  0.637620
0.86744  3.682210  0.637531
0.87287  3.681840  0.637443
0.87829  3.681470  0.637354
0.88372  3.681100  0.637266
0.88915  3.680730  0.637177
0.89457  3.680370  0.637088
0.90000  3.680000  0.637000
