; From SOPRA S.A. http://www.sopra-sa.com/indices.htm
; Filename    Symbol               Range (nm)     Description
; INAS        InAs                206     1239    Indium Arsenide
; lambda/um       n         k
1.00000  3.548000  0.278000
1.02500  3.552066  0.285441
1.05000  3.557543  0.293814
1.07500  3.564493  0.301742
1.10000  3.572431  0.309239
1.12500  3.581303  0.316799
1.15000  3.591467  0.324353
1.17500  3.601494  0.331887
1.20000  3.613053  0.340216
1.22500  3.624275  0.348099
1.25000  3.635590  0.355599
1.27500  3.647172  0.363159
1.30000  3.658053  0.370720
1.32500  3.668984  0.378280
1.35000  3.679266  0.385841
1.37500  3.688369  0.393529
1.40000  3.694956  0.400209
1.42500  3.699457  0.405830
1.45000  3.703541  0.412002
1.47500  3.707762  0.420518
1.50000  3.714161  0.433033
1.52500  3.722885  0.443250
1.55000  3.732033  0.452773
1.57500  3.742794  0.458968
1.60000  3.754702  0.462927
1.62500  3.763000  0.474000
1.65000  3.774698  0.476450
1.67500  3.785829  0.484159
1.70000  3.797155  0.493198
1.72500  3.809230  0.501843
1.75000  3.822303  0.511383
1.77500  3.836673  0.521446
1.80000  3.850927  0.530667
1.82500  3.865804  0.540656
1.85000  3.882017  0.550026
1.87500  3.899277  0.560350
1.90000  3.917225  0.572470
1.92500  3.935719  0.585273
1.95000  3.954170  0.599543
1.97500  3.974942  0.616035
2.00000  3.995204  0.633611
2.02500  4.017124  0.650569
2.05000  4.040529  0.668665
2.07500  4.063354  0.690047
2.10000  4.087790  0.711928
2.12500  4.114458  0.735194
2.15000  4.142009  0.760373
2.17500  4.170134  0.788595
2.20000  4.199298  0.820830
2.22500  4.229918  0.857129
2.25000  4.262000  0.897000
2.27500  4.296364  0.941934
2.30000  4.330702  0.990729
2.32500  4.366884  1.047210
2.35000  4.403204  1.113783
2.37500  4.436853  1.191529
2.40000  4.466302  1.282752
2.42500  4.486589  1.391932
2.45000  4.485509  1.520594
2.47500  4.448214  1.659610
2.50000  4.361538  1.785051
2.52500  4.240903  1.863682
2.55000  4.129717  1.882578
2.57500  4.061899  1.881305
2.60000  4.019969  1.885832
2.62500  3.990883  1.902093
2.65000  3.965848  1.929753
2.67500  3.940668  1.968054
2.70000  3.911096  2.016495
2.72500  3.868451  2.072250
2.75000  3.806650  2.130924
2.77500  3.723289  2.180630
2.80000  3.627027  2.206740
2.82500  3.532679  2.205186
2.85000  3.452110  2.184402
2.87500  3.388000  2.157000
2.90000  3.336634  2.129222
2.92500  3.294353  2.102638
2.95000  3.257869  2.078129
2.97500  3.225871  2.055466
3.00000  3.197298  2.033890
3.02500  3.170844  2.013048
3.05000  3.148074  1.993687
3.07500  3.126680  1.975057
3.10000  3.107812  1.957182
3.12500  3.091499  1.939491
3.15000  3.077017  1.922297
3.17500  3.063737  1.906537
3.20000  3.051116  1.891426
3.22500  3.040659  1.876212
3.25000  3.031759  1.862285
3.27500  3.024292  1.848841
3.30000  3.017897  1.835966
3.32500  3.012295  1.824321
3.35000  3.008162  1.812560
3.37500  3.005488  1.800703
3.40000  3.003542  1.790214
3.42500  3.002750  1.780178
3.45000  3.003470  1.770325
3.47500  3.005387  1.761478
3.50000  3.008000  1.754000
3.52500  3.012107  1.746398
3.55000  3.016911  1.739450
3.57500  3.022973  1.733235
3.60000  3.030071  1.727674
3.62500  3.038071  1.723072
3.65000  3.047454  1.719861
3.67500  3.057475  1.717307
3.70000  3.068822  1.715459
3.72500  3.082278  1.714253
3.75000  3.097077  1.714104
3.77500  3.112392  1.715799
3.80000  3.128689  1.719280
3.82500  3.147201  1.722610
3.85000  3.165561  1.728154
3.87500  3.185708  1.734489
3.90000  3.207576  1.742906
3.92500  3.231137  1.753631
3.95000  3.256714  1.765948
3.97500  3.283669  1.781203
4.00000  3.312762  1.799330
4.02500  3.343980  1.819469
4.05000  3.377368  1.843193
4.07500  3.412488  1.870780
4.10000  3.449182  1.902593
4.12500  3.488000  1.941000
4.15000  3.528106  1.985676
4.17500  3.571176  2.037830
4.20000  3.615102  2.099077
4.22500  3.658833  2.171624
4.25000  3.700429  2.258033
4.27500  3.735495  2.360217
4.30000  3.760591  2.477926
4.32500  3.769713  2.611850
4.35000  3.755325  2.755445
4.37500  3.712949  2.901381
4.40000  3.643942  3.042132
4.42500  3.553616  3.170481
4.45000  3.446040  3.281396
4.47500  3.323581  3.373431
4.50000  3.194755  3.444276
4.52500  3.065860  3.495538
4.55000  2.941689  3.531743
4.57500  2.823113  3.558628
4.60000  2.704670  3.581067
4.62500  2.584270  3.598225
4.65000  2.458052  3.605078
4.67500  2.330084  3.598105
4.70000  2.204537  3.575387
4.72500  2.085070  3.536023
4.75000  1.977000  3.481000
4.77500  1.883250  3.417797
4.80000  1.803612  3.348190
4.82500  1.738420  3.277590
4.85000  1.685638  3.208710
4.87500  1.642475  3.142789
4.90000  1.607542  3.081117
4.92500  1.580423  3.022152
4.95000  1.557731  2.966517
4.97500  1.538557  2.916214
5.00000  1.523503  2.870876
5.02500  1.511661  2.829620
5.05000  1.501130  2.792730
5.07500  1.492760  2.760829
5.10000  1.484506  2.732461
5.12500  1.475041  2.707730
5.15000  1.464207  2.685694
5.17500  1.451279  2.665532
5.20000  1.435687  2.646107
5.22500  1.418826  2.625038
5.25000  1.401231  2.602510
5.27500  1.383494  2.579254
5.30000  1.366213  2.554788
5.32500  1.349977  2.529193
5.35000  1.335425  2.502923
5.37500  1.323000  2.476000
5.40000  1.311945  2.449077
5.42500  1.302301  2.422929
5.45000  1.294070  2.396359
5.47500  1.287198  2.369730
5.50000  1.282024  2.343922
5.52500  1.278854  2.318821
5.55000  1.276274  2.294425
5.57500  1.275021  2.270737
5.60000  1.275815  2.247752
5.62500  1.278360  2.225534
5.65000  1.282295  2.203649
5.67500  1.287510  2.182063
5.70000  1.293380  2.162753
5.72500  1.300605  2.144856
5.75000  1.309903  2.128233
5.77500  1.321089  2.113969
5.80000  1.332654  2.102253
5.82500  1.343587  2.092916
5.85000  1.355396  2.087196
5.87500  1.369601  2.084376
5.90000  1.382833  2.083067
5.92500  1.394244  2.083339
5.95000  1.405532  2.087022
5.97500  1.418652  2.096223
6.00000  1.434000  2.112000
