; From SOPRA S.A. http://www.sopra-sa.com/indices.htm
; Filename    Symbol               Range (nm)     Description
; INGASB5     In0.5Ga0.5Sb        225      825    Indium Gallium Antimonide (50% Ga)
; lambda/um       n         k
0.22500  1.139171  2.496049
0.23000  1.220240  2.509321
0.23500  1.269881  2.507511
0.24000  1.286126  2.515339
0.24500  1.283702  2.549022
0.25000  1.279252  2.610552
0.25500  1.283178  2.694876
0.26000  1.300396  2.796386
0.26500  1.333316  2.911077
0.27000  1.383939  3.036397
0.27500  1.454937  3.170459
0.28000  1.550045  3.311373
0.28500  1.674625  3.454982
0.29000  1.834638  3.595172
0.29500  2.035670  3.720985
0.30000  2.279561  3.815632
0.30500  2.558955  3.857743
0.31000  2.852132  3.828302
0.31500  3.125076  3.722982
0.32000  3.345602  3.560339
0.32500  3.500953  3.372961
0.33000  3.599799  3.189718
0.33500  3.660132  3.023585
0.34000  3.695788  2.874921
0.34500  3.712627  2.741041
0.35000  3.712780  2.622180
0.35500  3.699693  2.520927
0.36000  3.679338  2.438810
0.36500  3.658298  2.374154
0.37000  3.641254  2.322317
0.37500  3.629494  2.277523
0.38000  3.621042  2.235194
0.38500  3.612305  2.193543
0.39000  3.600255  2.153557
0.39500  3.583731  2.117612
0.40000  3.563396  2.087934
0.40500  3.540899  2.065795
0.41000  3.518058  2.051471
0.41500  3.496403  2.044569
0.42000  3.477044  2.044376
0.42500  3.460719  2.050112
0.43000  3.447904  2.061066
0.43500  3.438922  2.076658
0.44000  3.434049  2.096451
0.44500  3.433591  2.120131
0.45000  3.437964  2.147476
0.45500  3.447758  2.178291
0.46000  3.463806  2.212325
0.46500  3.487227  2.249132
0.47000  3.519436  2.287879
0.47500  3.561924  2.327799
0.48000  3.616586  2.365051
0.48500  3.684246  2.396657
0.49000  3.764518  2.417839
0.49500  3.854712  2.423334
0.50000  3.949318  2.408815
0.50500  4.040578  2.372696
0.51000  4.120367  2.317350
0.51500  4.182600  2.248751
0.52000  4.224802  2.174609
0.52500  4.248064  2.102129
0.53000  4.255802  2.036573
0.53500  4.251877  1.981455
0.54000  4.241239  1.936938
0.54500  4.226926  1.903441
0.55000  4.211013  1.880025
0.55500  4.196765  1.866181
0.56000  4.185082  1.860580
0.56500  4.177160  1.862194
0.57000  4.173997  1.870044
0.57500  4.176485  1.883178
0.58000  4.185473  1.900614
0.58500  4.201787  1.921277
0.59000  4.226215  1.943922
0.59500  4.259452  1.967071
0.60000  4.302005  1.988962
0.60500  4.354057  2.007545
0.61000  4.415316  2.020541
0.61500  4.484860  2.025573
0.62000  4.561048  2.020393
0.62500  4.641509  2.003164
0.63000  4.723290  1.972753
0.63500  4.803124  1.928955
0.64000  4.877809  1.872581
0.64500  4.944579  1.805363
0.65000  5.001409  1.729701
0.65500  5.047150  1.648324
0.66000  5.081517  1.563948
0.66500  5.104943  1.479009
0.67000  5.118371  1.395501
0.67500  5.123041  1.314923
0.68000  5.120305  1.238294
0.68500  5.111498  1.166228
0.69000  5.097851  1.099011
0.69500  5.080451  1.036693
0.70000  5.060224  0.979157
0.70500  5.037937  0.926182
0.71000  5.014217  0.877483
0.71500  4.989568  0.832746
0.72000  4.964386  0.791650
0.72500  4.938980  0.753880
0.73000  4.913589  0.719136
0.73500  4.888397  0.687137
0.74000  4.863540  0.657627
0.74500  4.839117  0.630370
0.75000  4.815202  0.605153
0.75500  4.791845  0.581783
0.76000  4.769078  0.560088
0.76500  4.746921  0.539913
0.77000  4.725383  0.521119
0.77500  4.704466  0.503580
0.78000  4.684166  0.487187
0.78500  4.664474  0.471838
0.79000  4.645376  0.457444
0.79500  4.626860  0.443924
0.80000  4.608909  0.431207
0.80500  4.591506  0.419225
0.81000  4.574019  0.407712
0.81500  4.557667  0.397040
0.82000  4.541810  0.386945
0.82500  4.526428  0.377382
