; From SOPRA S.A. http://www.sopra-sa.com/indices.htm
; Filename    Symbol               Range (nm)     Description
; INGASB1     In0.9Ga0.1Sb        225      825    Indium Gallium Antimonide (10% Ga)
; lambda/um       n         k
0.22500  1.102407  2.426153
0.23000  1.190418  2.453166
0.23500  1.257089  2.456485
0.24000  1.290586  2.456171
0.24500  1.297655  2.473611
0.25000  1.294529  2.517651
0.25500  1.294559  2.586350
0.26000  1.305067  2.674356
0.26500  1.329543  2.777004
0.27000  1.370149  2.891124
0.27500  1.429210  3.014532
0.28000  1.509830  3.145464
0.28500  1.616654  3.280355
0.29000  1.754991  3.414394
0.29500  1.930330  3.538747
0.30000  2.145772  3.639441
0.30500  2.397522  3.697588
0.31000  2.669648  3.694067
0.31500  2.933424  3.619843
0.32000  3.157383  3.485587
0.32500  3.323668  3.318698
0.33000  3.434892  3.147377
0.33500  3.505183  2.987615
0.34000  3.547915  2.842527
0.34500  3.569561  2.711564
0.35000  3.573319  2.595695
0.35500  3.563371  2.497522
0.36000  3.545998  2.418360
0.36500  3.527802  2.356379
0.37000  3.513382  2.306934
0.37500  3.503990  2.264367
0.38000  3.497719  2.224238
0.38500  3.491130  2.184834
0.39000  3.481354  2.147104
0.39500  3.467331  2.113309
0.40000  3.449740  2.085543
0.40500  3.430190  2.064968
0.41000  3.410426  2.051791
0.41500  3.391904  2.045578
0.42000  3.375662  2.045595
0.42500  3.362371  2.051051
0.43000  3.352445  2.061227
0.43500  3.346141  2.075530
0.44000  3.343655  2.093507
0.44500  3.345201  2.114831
0.45000  3.351066  2.139269
0.45500  3.361680  2.166638
0.46000  3.377666  2.196736
0.46500  3.399887  2.229243
0.47000  3.429471  2.263566
0.47500  3.467771  2.298639
0.48000  3.516209  2.332654
0.48500  3.575896  2.363567
0.49000  3.647188  2.386062
0.49500  3.728518  2.396218
0.50000  3.816004  2.389633
0.50500  3.903389  2.363657
0.51000  3.983214  2.318840
0.51500  4.048910  2.259312
0.52000  4.096681  2.191651
0.52500  4.126151  2.122873
0.53000  4.139658  2.058709
0.53500  4.140510  2.003364
0.54000  4.133496  1.957641
0.54500  4.121123  1.922133
0.55000  4.107410  1.896987
0.55500  4.093893  1.881035
0.56000  4.082176  1.873298
0.56500  4.073481  1.872799
0.57000  4.068783  1.878616
0.57500  4.068921  1.889876
0.58000  4.074668  1.905728
0.58500  4.086777  1.925283
0.59000  4.105991  1.947559
0.59500  4.133026  1.971410
0.60000  4.168517  1.995468
0.60500  4.212932  2.018102
0.61000  4.266447  2.037413
0.61500  4.328810  2.051276
0.62000  4.399202  2.057468
0.62500  4.476142  2.053852
0.63000  4.557470  2.038633
0.63500  4.640456  2.010631
0.64000  4.722025  1.969496
0.64500  4.799093  1.915818
0.65000  4.868906  1.851080
0.65500  4.929348  1.777452
0.66000  4.979101  1.697497
0.66500  5.017673  1.613849
0.67000  5.045293  1.528945
0.67500  5.062734  1.444848
0.68000  5.071111  1.363158
0.68500  5.071702  1.285015
0.69000  5.065812  1.211148
0.69500  5.054670  1.141950
0.70000  5.039383  1.077557
0.70500  5.020912  1.017917
0.71000  5.000065  0.962860
0.71500  4.977509  0.912136
0.72000  4.953785  0.865456
0.72500  4.929327  0.822510
0.73000  4.904477  0.782993
0.73500  4.879501  0.746607
0.74000  4.854608  0.713072
0.74500  4.829951  0.682127
0.75000  4.805651  0.653532
0.75500  4.781793  0.627068
0.76000  4.758440  0.602539
0.76500  4.735636  0.579765
0.77000  4.713406  0.558586
0.77500  4.691769  0.538857
0.78000  4.670730  0.520448
0.78500  4.650291  0.503243
0.79000  4.630446  0.487137
0.79500  4.611187  0.472037
0.80000  4.592501  0.457857
0.80500  4.574376  0.444521
0.81000  4.556795  0.431962
0.81500  4.539742  0.420116
0.82000  4.523202  0.408929
0.82500  4.506535  0.398142
