; From SOPRA S.A. http://www.sopra-sa.com/indices.htm
; Filename    Symbol               Range (nm)     Description
; INGASB0     InSb                225      825    Indium Gallium Antimonide (0% Ga)
; lambda/um       n         k
0.22500  1.100964  2.417471
0.23000  1.189756  2.448644
0.23500  1.260223  2.455022
0.24000  1.298725  2.454703
0.24500  1.309600  2.469577
0.25000  1.308366  2.510222
0.25500  1.308933  2.575800
0.26000  1.319322  2.661233
0.26500  1.343461  2.761762
0.27000  1.383732  2.874043
0.27500  1.442568  2.995722
0.28000  1.523137  3.124870
0.28500  1.630121  3.257711
0.29000  1.768791  3.389144
0.29500  1.944430  3.509937
0.30000  2.159566  3.605688
0.30500  2.409298  3.657405
0.31000  2.676275  3.646811
0.31500  2.931062  3.567028
0.32000  3.143431  3.431214
0.32500  3.298362  3.267655
0.33000  3.400923  3.103258
0.33500  3.466023  2.951853
0.34000  3.506498  2.814919
0.34500  3.527891  2.691151
0.35000  3.532621  2.581346
0.35500  3.524353  2.488177
0.36000  3.509032  2.413088
0.36500  3.493030  2.354400
0.37000  3.480792  2.307622
0.37500  3.473482  2.267262
0.38000  3.469173  2.229028
0.38500  3.464461  2.191315
0.39000  3.456529  2.155127
0.39500  3.444361  2.122739
0.40000  3.428656  2.096238
0.40500  3.411022  2.076778
0.41000  3.393198  2.064564
0.41500  3.376626  2.059169
0.42000  3.362336  2.059871
0.42500  3.350997  2.065898
0.43000  3.343027  2.076547
0.43500  3.338695  2.091245
0.44000  3.338222  2.109553
0.44500  3.341851  2.131156
0.45000  3.349921  2.155820
0.45500  3.362923  2.183347
0.46000  3.381561  2.213489
0.46500  3.406790  2.245833
0.47000  3.439829  2.279624
0.47500  3.482077  2.313530
0.48000  3.534892  2.345369
0.48500  3.599127  2.372642
0.49000  3.674452  2.389636
0.49500  3.758339  2.392361
0.50000  3.845776  2.376973
0.50500  3.929717  2.342127
0.51000  4.002800  2.290086
0.51500  4.059557  2.226389
0.52000  4.097838  2.158138
0.52500  4.118761  2.091936
0.53000  4.125570  2.032576
0.53500  4.121844  1.983282
0.54000  4.111681  1.943735
0.54500  4.099049  1.914938
0.55000  4.085833  1.895832
0.55500  4.073897  1.885458
0.56000  4.064649  1.882807
0.56500  4.059191  1.886910
0.57000  4.058444  1.896846
0.57500  4.063240  1.911726
0.58000  4.074375  1.930636
0.58500  4.092633  1.952576
0.59000  4.118774  1.976392
0.59500  4.153488  2.000704
0.60000  4.197303  2.023863
0.60500  4.250469  2.043931
0.61000  4.312803  2.058722
0.61500  4.383544  2.065918
0.62000  4.461240  2.063261
0.62500  4.543717  2.048820
0.63000  4.628172  2.021281
0.63500  4.711415  1.980194
0.64000  4.790205  1.926102
0.64500  4.861632  1.860501
0.65000  4.923444  1.785636
0.65500  4.974234  1.704181
0.66000  5.013473  1.618895
0.66500  5.041396  1.532334
0.67000  5.058820  1.446651
0.67500  5.066921  1.363512
0.68000  5.067043  1.284093
0.68500  5.060549  1.209135
0.69000  5.048725  1.139029
0.69500  5.032717  1.073897
0.70000  5.013516  1.013669
0.70500  4.991955  0.958155
0.71000  4.968713  0.907084
0.71500  4.944342  0.860148
0.72000  4.919280  0.817024
0.72500  4.893869  0.777389
0.73000  4.868379  0.740934
0.73500  4.843013  0.707369
0.74000  4.817925  0.676425
0.74500  4.793232  0.647855
0.75000  4.769018  0.621436
0.75500  4.745340  0.596965
0.76000  4.722240  0.574261
0.76500  4.699743  0.553159
0.77000  4.677862  0.533512
0.77500  4.656603  0.515190
0.78000  4.635963  0.498075
0.78500  4.615936  0.482059
0.79000  4.596511  0.467049
0.79500  4.577675  0.452960
0.80000  4.559412  0.439714
0.80500  4.541707  0.427243
0.81000  4.524541  0.415484
0.81500  4.507271  0.404170
0.82000  4.491139  0.393680
0.82500  4.475493  0.383750
