; From SOPRA S.A. http://www.sopra-sa.com/indices.htm
; Filename    Symbol               Range (nm)     Description
; INGASB3     In0.7Ga0.3Sb        225      825    Indium Gallium Antimonide (30% Ga)
; lambda/um       n         k
0.22500  1.114873  2.453886
0.23000  1.200166  2.473276
0.23500  1.258545  2.472472
0.24000  1.282696  2.474600
0.24500  1.283786  2.499016
0.25000  1.278717  2.551042
0.25500  1.279459  2.626911
0.26000  1.292030  2.720987
0.26500  1.319234  2.828890
0.27000  1.363004  2.947788
0.27500  1.425672  3.075729
0.28000  1.510589  3.210764
0.28500  1.622238  3.350230
0.29000  1.766494  3.488312
0.29500  1.948954  3.616206
0.30000  2.172870  3.719484
0.30500  2.434393  3.778604
0.31000  2.717132  3.773690
0.31500  2.991365  3.695178
0.32000  3.224311  3.553878
0.32500  3.397075  3.378134
0.33000  3.511867  3.197639
0.33500  3.583752  3.028835
0.34000  3.626345  2.875842
0.34500  3.646838  2.737983
0.35000  3.648770  2.616145
0.35500  3.636542  2.512868
0.36000  3.616625  2.429414
0.36500  3.595804  2.363874
0.37000  3.578831  2.311474
0.37500  3.567042  2.266386
0.38000  3.558525  2.224007
0.38500  3.549773  2.182512
0.39000  3.537827  2.142813
0.39500  3.521561  2.107191
0.40000  3.501633  2.077784
0.40500  3.479661  2.055792
0.41000  3.457420  2.041443
0.41500  3.436394  2.034308
0.42000  3.417651  2.033650
0.42500  3.401883  2.038666
0.43000  3.389517  2.048624
0.43500  3.380820  2.062920
0.44000  3.375994  2.081093
0.44500  3.375250  2.102808
0.45000  3.378875  2.127834
0.45500  3.387293  2.155995
0.46000  3.401121  2.187109
0.46500  3.421216  2.220889
0.47000  3.448712  2.256800
0.47500  3.484988  2.293860
0.48000  3.531439  2.331095
0.48500  3.589627  2.364455
0.49000  3.659920  2.390829
0.49500  3.741259  2.405546
0.50000  3.830234  2.403884
0.50500  3.920903  2.382539
0.51000  4.005720  2.341204
0.51500  4.077514  2.283276
0.52000  4.131573  2.215041
0.52500  4.166646  2.143744
0.53000  4.184511  2.075684
0.53500  4.188711  2.015193
0.54000  4.182854  1.965089
0.54500  4.171507  1.925101
0.55000  4.156699  1.895216
0.55500  4.142012  1.875211
0.56000  4.128586  1.863825
0.56500  4.117752  1.860067
0.57000  4.110553  1.862992
0.57500  4.107862  1.871714
0.58000  4.110463  1.885379
0.58500  4.119107  1.903121
0.59000  4.134537  1.924003
0.59500  4.157473  1.946950
0.60000  4.188582  1.970690
0.60500  4.228396  1.993708
0.61000  4.277206  2.014219
0.61500  4.334935  2.030199
0.62000  4.400994  2.039474
0.62500  4.474172  2.039884
0.63000  4.552590  2.029508
0.63500  4.633759  2.006929
0.64000  4.714757  1.971474
0.64500  4.792524  1.923366
0.65000  4.864201  1.863729
0.65500  4.927443  1.794453
0.66000  4.980639  1.717928
0.66500  5.022992  1.636733
0.67000  5.054453  1.553352
0.67500  5.075579  1.469965
0.68000  5.087342  1.388324
0.68500  5.090939  1.309729
0.69000  5.087642  1.235054
0.69500  5.078689  1.164815
0.70000  5.065215  1.099246
0.70500  5.048222  1.038370
0.71000  5.028561  0.982070
0.71500  5.006943  0.930130
0.72000  4.983952  0.882285
0.72500  4.960056  0.838241
0.73000  4.935627  0.797697
0.73500  4.910960  0.760358
0.74000  4.886281  0.725943
0.74500  4.861768  0.694188
0.75000  4.837550  0.664850
0.75500  4.813729  0.637706
0.76000  4.790375  0.612553
0.76500  4.767540  0.589208
0.77000  4.745257  0.567505
0.77500  4.723549  0.547296
0.78000  4.702426  0.528447
0.78500  4.681893  0.510838
0.79000  4.661946  0.494361
0.79500  4.642580  0.478918
0.80000  4.623784  0.464422
0.80500  4.605545  0.450795
0.81000  4.587850  0.437966
0.81500  4.570684  0.425871
0.82000  4.554029  0.414452
0.82500  4.537251  0.403447
