; From SOPRA S.A. http://www.sopra-sa.com/indices.htm
; Filename    Symbol               Range (nm)     Description
; INGASB10    GaSb                225      825    Indium Gallium Antimonide (100% Ga)
; lambda/um       n         k
0.22500  1.248599  2.672844
0.23000  1.314935  2.682451
0.23500  1.346154  2.694523
0.24000  1.353667  2.730651
0.24500  1.356119  2.797112
0.25000  1.366994  2.889899
0.25500  1.393366  3.002886
0.26000  1.439079  3.131242
0.26500  1.507432  3.271541
0.27000  1.602599  3.420695
0.27500  1.730087  3.574787
0.28000  1.896957  3.726139
0.28500  2.109730  3.862767
0.29000  2.371058  3.965404
0.29500  2.672813  4.008995
0.30000  2.989546  3.969968
0.30500  3.279527  3.843151
0.31000  3.502789  3.652092
0.31500  3.643427  3.439994
0.32000  3.714666  3.245938
0.32500  3.744825  3.088865
0.33000  3.760405  2.967518
0.33500  3.776502  2.869270
0.34000  3.795357  2.780532
0.34500  3.811284  2.694290
0.35000  3.818319  2.611621
0.35500  3.815333  2.537659
0.36000  3.806124  2.476390
0.36500  3.796355  2.427954
0.37000  3.790314  2.388924
0.37500  3.789066  2.354364
0.38000  3.790465  2.320353
0.38500  3.790818  2.285704
0.39000  3.787099  2.251959
0.39500  3.778264  2.221990
0.40000  3.765176  2.198434
0.40500  3.749738  2.182900
0.41000  3.734058  2.175959
0.41500  3.720008  2.177488
0.42000  3.709130  2.187043
0.42500  3.702729  2.204097
0.43000  3.702055  2.228148
0.43500  3.708496  2.258690
0.44000  3.723742  2.295070
0.44500  3.749700  2.336899
0.45000  3.789347  2.380950
0.45500  3.845035  2.424497
0.46000  3.918617  2.462277
0.46500  4.009782  2.487100
0.47000  4.114368  2.491009
0.47500  4.223557  2.467964
0.48000  4.325381  2.417078
0.48500  4.408654  2.344087
0.49000  4.466980  2.259458
0.49500  4.499735  2.174860
0.50000  4.512036  2.097956
0.50500  4.509798  2.034134
0.51000  4.499224  1.985221
0.51500  4.485517  1.951057
0.52000  4.472743  1.930445
0.52500  4.464050  1.921733
0.53000  4.461389  1.922925
0.53500  4.468073  1.932297
0.54000  4.485368  1.947377
0.54500  4.514857  1.965456
0.55000  4.557673  1.983279
0.55500  4.614201  1.997021
0.56000  4.683703  2.002454
0.56500  4.763984  1.995364
0.57000  4.851282  1.972213
0.57500  4.940543  1.930877
0.58000  5.026114  1.871217
0.58500  5.102703  1.795195
0.59000  5.166268  1.706468
0.59500  5.214537  1.609596
0.60000  5.247027  1.509178
0.60500  5.264698  1.409183
0.61000  5.269408  1.312624
0.61500  5.263415  1.221491
0.62000  5.249000  1.136899
0.62500  5.228234  1.059288
0.63000  5.202882  0.988636
0.63500  5.174380  0.924630
0.64000  5.143853  0.866800
0.64500  5.112166  0.814605
0.65000  5.079966  0.767487
0.65500  5.047730  0.724910
0.66000  5.015802  0.686376
0.66500  4.984424  0.651429
0.67000  4.953763  0.619663
0.67500  4.923929  0.590719
0.68000  4.894989  0.564279
0.68500  4.866980  0.540064
0.69000  4.839916  0.517829
0.69500  4.813794  0.497362
0.70000  4.788602  0.478475
0.70500  4.764318  0.461003
0.71000  4.740915  0.444805
0.71500  4.717766  0.429543
0.72000  4.696044  0.415534
0.72500  4.675108  0.402460
0.73000  4.654925  0.390235
0.73500  4.635461  0.378782
0.74000  4.616686  0.368032
0.74500  4.598567  0.357925
0.75000  4.581075  0.348406
0.75500  4.564181  0.339426
0.76000  4.547858  0.330942
0.76500  4.532078  0.322915
0.77000  4.516818  0.315309
0.77500  4.502054  0.308092
0.78000  4.487762  0.301237
0.78500  4.473923  0.294716
0.79000  4.460515  0.288506
0.79500  4.447519  0.282585
0.80000  4.434918  0.276934
0.80500  4.422694  0.271534
0.81000  4.410832  0.266370
0.81500  4.399315  0.261426
0.82000  4.388129  0.256688
0.82500  4.377262  0.252144
