; From SOPRA S.A. http://www.sopra-sa.com/indices.htm
; Filename    Symbol               Range (nm)     Description
; IR          Ir                  190     2479    Iridium
; lambda/um       n         k
0.19075  0.950000  1.540000
0.19223  0.943125  1.567500
0.19373  0.940000  1.590000
0.19525  0.939375  1.610000
0.19680  0.940000  1.630000
0.19838  0.940000  1.654375
0.19998  0.940000  1.680000
0.20160  0.939375  1.705000
0.20325  0.940000  1.730000
0.20493  0.943750  1.755625
0.20664  0.950000  1.780000
0.20838  0.961250  1.800625
0.21014  0.970000  1.820000
0.21194  0.965625  1.838750
0.21377  0.960000  1.860000
0.21563  0.963750  1.888750
0.21752  0.970000  1.920000
0.21944  0.975000  1.950625
0.22140  0.980000  1.980000
0.22340  0.985000  2.005000
0.22543  0.990000  2.030000
0.22750  0.994375  2.059375
0.22960  1.000000  2.090000
0.23175  1.009375  2.119375
0.23393  1.020000  2.150000
0.23616  1.029375  2.184375
0.23843  1.040000  2.220000
0.24075  1.054375  2.255625
0.24311  1.070000  2.290000
0.24552  1.085000  2.320000
0.24797  1.100000  2.350000
0.25048  1.113750  2.384375
0.25303  1.130000  2.420000
0.25564  1.153125  2.455000
0.25830  1.180000  2.490000
0.26102  1.208750  2.526875
0.26380  1.240000  2.560000
0.26663  1.275000  2.581250
0.26953  1.310000  2.600000
0.27249  1.339375  2.625625
0.27552  1.370000  2.650000
0.27862  1.410000  2.666875
0.28178  1.450000  2.680000
0.28502  1.480625  2.691250
0.28834  1.510000  2.700000
0.29173  1.546250  2.706875
0.29520  1.580000  2.710000
0.29876  1.603125  2.706875
0.30240  1.620000  2.700000
0.30614  1.632500  2.690000
0.30996  1.640000  2.680000
0.31389  1.643125  2.672500
0.31791  1.640000  2.670000
0.32204  1.627500  2.677500
0.32628  1.610000  2.690000
0.33063  1.591250  2.700625
0.33510  1.570000  2.720000
0.33969  1.543750  2.759375
0.34440  1.520000  2.810000
0.34925  1.505000  2.868125
0.35424  1.500000  2.930000
0.35938  1.511250  2.991250
0.36466  1.530000  3.050000
0.37011  1.548750  3.100625
0.37571  1.570000  3.150000
0.38149  1.593750  3.205625
0.38745  1.620000  3.260000
0.39360  1.650000  3.306875
0.39995  1.680000  3.350000
0.40651  1.706250  3.390625
0.41328  1.730000  3.430000
0.42029  1.750625  3.468750
0.42754  1.770000  3.510000
0.43504  1.790000  3.557500
0.44280  1.810000  3.610000
0.45086  1.828750  3.668125
0.45920  1.850000  3.730000
0.46787  1.878125  3.793750
0.47687  1.910000  3.860000
0.48622  1.943125  3.929375
0.49594  1.980000  4.000000
0.50606  2.022500  4.071250
0.51660  2.070000  4.140000
0.52760  2.123750  4.201250
0.53907  2.180000  4.260000
0.55105  2.235000  4.321250
0.56357  2.290000  4.380000
0.57668  2.345625  4.431875
0.59041  2.400000  4.480000
0.60481  2.452500  4.524375
0.61993  2.500000  4.570000
0.63582  2.536875  4.622500
0.65255  2.570000  4.680000
0.67019  2.606250  4.745000
0.68881  2.640000  4.810000
0.70849  2.670000  4.863125
0.72932  2.690000  4.920000
0.75143  2.690000  4.987500
0.77491  2.680000  5.080000
0.79990  2.660000  5.223125
0.82657  2.650000  5.390000
0.85507  2.675000  5.563750
0.88561  2.720000  5.740000
0.91841  2.782500  5.905625
0.95373  2.850000  6.070000
0.99188  2.908125  6.233750
1.03321  2.960000  6.410000
1.07813  3.000000  6.616875
1.12714  3.040000  6.840000
1.18081  3.097500  7.066250
1.23985  3.150000  7.310000
1.30511  3.180000  7.578750
1.37761  3.190000  7.880000
1.45865  3.180625  8.207500
1.54981  3.140000  8.610000
1.65314  3.040625  9.126875
1.77122  2.930000  9.780000
1.90746  2.835000  10.606880
2.06642  2.790000  11.600000
2.25428  2.827500  12.763130
2.47970  2.980000  14.100000
