; From SOPRA S.A. http://www.sopra-sa.com/indices.htm
; Filename    Symbol               Range (nm)     Description
; ITO2        ITO                 250      850    Indium Tin Oxide
; lambda/um       n         k
0.25000  2.350461  0.211338
0.26000  2.355171  0.180126
0.27000  2.351314  0.154410
0.28000  2.341429  0.133172
0.29000  2.327366  0.115602
0.30000  2.310482  0.101055
0.31000  2.291769  0.089010
0.32000  2.271956  0.079046
0.33000  2.251578  0.070821
0.34000  2.231025  0.064054
0.35000  2.210578  0.058513
0.36000  2.190439  0.054006
0.37000  2.170753  0.050374
0.38000  2.151616  0.047484
0.39000  2.133092  0.045225
0.40000  2.115220  0.043504
0.41000  2.098022  0.042240
0.42000  2.081505  0.041366
0.43000  2.065663  0.040827
0.44000  2.050488  0.040573
0.45000  2.035964  0.040563
0.46000  2.022070  0.040761
0.47000  2.008785  0.041138
0.48000  1.996085  0.041666
0.49000  1.983947  0.042323
0.50000  1.972345  0.043090
0.51000  1.961256  0.043950
0.52000  1.950656  0.044889
0.53000  1.940521  0.045893
0.54000  1.930828  0.046952
0.55000  1.921556  0.048057
0.56000  1.912684  0.049199
0.57000  1.904192  0.050370
0.58000  1.896061  0.051565
0.59000  1.888273  0.052779
0.60000  1.880810  0.054006
0.61000  1.873656  0.055242
0.62000  1.866796  0.056484
0.63000  1.860214  0.057729
0.64000  1.853898  0.058974
0.65000  1.847834  0.060216
0.66000  1.842009  0.061454
0.67000  1.836412  0.062686
0.68000  1.831031  0.063910
0.69000  1.825857  0.065126
0.70000  1.820879  0.066331
0.71000  1.816089  0.067526
0.72000  1.811476  0.068709
0.73000  1.807033  0.069879
0.74000  1.802752  0.071036
0.75000  1.798626  0.072180
0.76000  1.794647  0.073310
0.77000  1.790808  0.074426
0.78000  1.787104  0.075528
0.79000  1.783528  0.076615
0.80000  1.780075  0.077688
0.81000  1.776739  0.078746
0.82000  1.773515  0.079789
0.83000  1.770399  0.080818
0.84000  1.767385  0.081832
0.85000  1.764470  0.082831
