; From SOPRA S.A. http://www.sopra-sa.com/indices.htm
; Filename    Symbol               Range (nm)     Description
; NBSI-B      NbSi2               206    24797    Niobium Silicide (perpendicular to c axis)
; lambda/um       n         k
0.20664  0.976000  2.693000
0.20838  1.057001  2.650687
0.21014  1.158000  2.614000
0.21194  1.258750  2.577562
0.21377  1.339000  2.536000
0.21563  1.360563  2.471938
0.21752  1.357000  2.416000
0.21944  1.347875  2.401813
0.22140  1.337000  2.403000
0.22340  1.336563  2.403063
0.22543  1.341000  2.406000
0.22750  1.349375  2.410437
0.22960  1.360000  2.416000
0.23175  1.370625  2.421500
0.23393  1.382000  2.428000
0.23616  1.394000  2.436438
0.23843  1.407000  2.446000
0.24075  1.421437  2.456250
0.24311  1.437000  2.467000
0.24552  1.453562  2.477937
0.24797  1.471000  2.489000
0.25048  1.489438  2.500000
0.25303  1.508000  2.511000
0.25564  1.525313  2.521062
0.25830  1.543000  2.533000
0.26102  1.561750  2.551313
0.26380  1.583000  2.570000
0.26663  1.610125  2.583250
0.26953  1.638000  2.595000
0.27249  1.661000  2.607000
0.27552  1.684000  2.620000
0.27862  1.710375  2.635875
0.28178  1.739000  2.653000
0.28502  1.769563  2.671125
0.28834  1.803000  2.688000
0.29173  1.841000  2.700875
0.29520  1.881000  2.711000
0.29876  1.920750  2.719125
0.30240  1.961000  2.724000
0.30614  2.003250  2.724313
0.30996  2.043000  2.721000
0.31389  2.074813  2.712625
0.31791  2.103000  2.705000
0.32204  2.129625  2.705250
0.32628  2.156000  2.708000
0.33063  2.184937  2.710500
0.33510  2.214000  2.712000
0.33969  2.241312  2.708812
0.34440  2.268000  2.707000
0.34925  2.294250  2.713938
0.35424  2.321000  2.722000
0.35938  2.349313  2.724125
0.36466  2.379000  2.726000
0.37011  2.410875  2.732750
0.37571  2.443000  2.739000
0.38149  2.473875  2.739063
0.38745  2.503000  2.739000
0.39360  2.528062  2.743500
0.39995  2.553000  2.751000
0.40651  2.582000  2.762750
0.41328  2.612000  2.775000
0.42029  2.639938  2.783188
0.42754  2.670000  2.791000
0.43504  2.706563  2.801250
0.44280  2.746000  2.812000
0.45086  2.785687  2.822062
0.45920  2.827000  2.832000
0.46787  2.870375  2.841937
0.47687  2.916000  2.852000
0.48622  2.963813  2.863250
0.49594  3.015000  2.873000
0.50606  3.071938  2.878625
0.51660  3.131000  2.881000
0.52760  3.188750  2.880125
0.53907  3.247000  2.876000
0.55105  3.306937  2.868437
0.56357  3.367000  2.858000
0.57668  3.424875  2.846313
0.59041  3.484000  2.830000
0.60481  3.551188  2.804625
0.61993  3.614000  2.775000
0.63582  3.658875  2.743375
0.65255  3.696000  2.713000
0.67019  3.730813  2.687750
0.68881  3.764000  2.668000
0.70849  3.795437  2.657125
0.72932  3.833000  2.650000
0.75143  3.887000  2.646063
0.77491  3.950000  2.635000
0.79990  4.021625  2.605937
0.82657  4.091000  2.560000
0.85507  4.150000  2.490875
0.88561  4.190000  2.410000
0.91841  4.196437  2.322563
0.95373  4.179000  2.241000
0.99188  4.139187  2.182688
1.03321  4.087000  2.138000
1.07813  4.043562  2.104063
1.12714  3.977000  2.078000
1.18081  3.849000  2.040750
1.23985  3.700000  2.038000
1.30511  3.558875  2.121375
1.37761  3.422000  2.254000
1.45865  3.296562  2.410812
1.54981  3.179000  2.608000
1.65314  3.065063  2.856250
1.77122  2.964000  3.147000
1.90746  2.892187  3.458000
2.06642  2.824000  3.841000
2.25428  2.709000  4.340937
2.47970  2.638000  4.956000
2.75523  2.703937  5.671750
3.09963  2.850000  6.571000
3.54243  3.031750  7.717313
4.13284  3.305000  9.154000
4.95941  3.690000  10.837380
6.19926  4.249000  13.092000
8.26568  5.033750  16.150380
12.39852  6.096001  20.245000
24.79704  10.531000  43.526000
