; From SOPRA S.A. http://www.sopra-sa.com/indices.htm
; Filename    Symbol               Range (nm)     Description
; RESI1-75    ReSi1.75            103    12398    Rhenium Silicide
; lambda/um       n         k
0.10332  0.832000  1.201000
0.10419  0.832000  1.201000
0.10507  0.832000  1.201000
0.10597  0.836000  1.208000
0.10688  0.843000  1.221000
0.10781  0.851000  1.234000
0.10876  0.858000  1.247000
0.10972  0.868000  1.267000
0.11070  0.872000  1.273000
0.11170  0.879000  1.285000
0.11271  0.886000  1.298000
0.11375  0.893000  1.310000
0.11480  0.903000  1.329000
0.11587  0.903000  1.340000
0.11697  0.903000  1.362000
0.11808  0.903000  1.384000
0.11922  0.917000  1.407000
0.12037  0.937000  1.441000
0.12155  0.943000  1.452000
0.12276  0.956000  1.474000
0.12399  0.969000  1.496000
0.12524  0.976000  1.527000
0.12652  0.986000  1.572000
0.12782  0.992000  1.582000
0.12915  1.004000  1.603000
0.13051  1.017000  1.623000
0.13190  1.032000  1.656000
0.13332  1.055000  1.707000
0.13477  1.059000  1.718000
0.13625  1.068000  1.741000
0.13776  1.077000  1.764000
0.13931  1.102000  1.796000
0.14089  1.139000  1.843000
0.14251  1.150000  1.860000
0.14417  1.171000  1.895000
0.14586  1.192000  1.929000
0.14760  1.205000  1.958000
0.14938  1.225000  2.000000
0.15120  1.233000  2.019000
0.15307  1.248000  2.058000
0.15498  1.264000  2.097000
0.15694  1.282000  2.098000
0.15896  1.309000  2.101000
0.16102  1.315000  2.107000
0.16314  1.326000  2.119000
0.16531  1.338000  2.131000
0.16755  1.398000  2.138000
0.16984  1.489000  2.149000
0.17220  1.521000  2.167000
0.17463  1.586000  2.204000
0.17712  1.651000  2.242000
0.17969  1.669000  2.264000
0.18233  1.697000  2.298000
0.18505  1.723000  2.309000
0.18786  1.775000  2.331000
0.19075  1.827000  2.353000
0.19373  1.871000  2.363000
0.19680  1.936000  2.376000
0.19998  1.956000  2.387000
0.20325  1.997000  2.408000
0.20664  2.038000  2.429000
0.21014  2.075000  2.433000
0.21377  2.132000  2.439000
0.21752  2.163000  2.441000
0.22140  2.223000  2.447000
0.22543  2.283000  2.452000
0.22960  2.321000  2.447000
0.23393  2.377000  2.440000
0.23843  2.395000  2.447000
0.24311  2.430000  2.461000
0.24797  2.465000  2.475000
0.25303  2.503000  2.493000
0.25830  2.559000  2.520000
0.26380  2.583000  2.528000
0.26953  2.629000  2.544000
0.27552  2.675000  2.561000
0.28178  2.738000  2.581000
0.28834  2.833000  2.612000
0.29520  2.874000  2.613000
0.30240  2.957000  2.614000
0.30996  3.040000  2.615000
0.31791  3.145000  2.635000
0.32628  3.302000  2.665000
0.33510  3.353000  2.652000
0.34440  3.456000  2.626000
0.35424  3.558000  2.600000
0.36466  3.655000  2.544000
0.37571  3.801000  2.460000
0.38745  3.840000  2.431000
0.39995  3.918000  2.373000
0.41328  3.995000  2.315000
0.42754  4.077000  2.232000
0.44280  4.200000  2.107000
0.45920  4.226000  2.074000
0.47687  4.279000  2.006000
0.49594  4.331000  1.939000
0.51660  4.375000  1.848000
0.53907  4.442000  1.711000
0.56357  4.463000  1.672000
0.59041  4.506000  1.594000
0.61993  4.550000  1.517000
0.65255  4.585000  1.449000
0.68881  4.638000  1.347000
0.72932  4.645000  1.309000
0.77491  4.659000  1.232000
0.82657  4.673000  1.156000
0.88561  4.690000  1.101000
0.95373  4.716000  1.018000
1.03321  4.732000  0.998000
1.12714  4.766000  0.957000
1.23985  4.808000  0.901000
1.37761  4.835000  0.853000
1.54981  4.881000  0.791000
1.77122  4.965000  0.728000
2.06642  5.090000  0.637000
2.47970  5.192000  0.445000
3.09963  5.096000  0.260000
4.13284  4.918000  0.127000
6.19926  4.552000  0.100000
12.39852  4.004000  0.398000
