; From SOPRA S.A. http://www.sopra-sa.com/indices.htm
; Filename    Symbol               Range (nm)     Description
; RINGAS10    In0.1Ga0.9As        206     2479    Indium Gallium Arsenide (relaxed, 10% In)
; lambda/um       n         k
0.24000  1.786625  3.486341
0.24500  1.937585  3.809988
0.25000  2.343366  3.999071
0.25500  2.872751  4.004328
0.26000  3.316598  3.793549
0.26500  3.584360  3.517727
0.27000  3.766101  3.237251
0.27500  3.892001  3.013143
0.28000  3.981817  2.736725
0.28500  3.968493  2.489951
0.29000  3.919028  2.294060
0.29500  3.838172  2.158724
0.30000  3.754827  2.064583
0.30500  3.695440  2.009421
0.31000  3.634018  1.969540
0.31500  3.587414  1.936376
0.32000  3.560993  1.922793
0.32500  3.535624  1.916851
0.33000  3.517854  1.915576
0.33500  3.512797  1.917297
0.34000  3.504117  1.931094
0.34500  3.507317  1.946307
0.35000  3.518787  1.961863
0.35500  3.533805  1.977121
0.36000  3.556906  1.996858
0.36500  3.589417  2.019226
0.37000  3.621275  2.044773
0.37500  3.664246  2.070314
0.38000  3.721289  2.095034
0.38500  3.779846  2.128948
0.39000  3.862005  2.161046
0.39500  3.970304  2.187051
0.40000  4.111719  2.186834
0.40500  4.243200  2.130395
0.41000  4.351388  2.040904
0.41500  4.414425  1.959442
0.42000  4.473641  1.900160
0.42500  4.534070  1.861148
0.43000  4.638854  1.825820
0.43500  4.783694  1.742875
0.44000  4.920900  1.565385
0.44500  4.963724  1.357627
0.45000  4.944551  1.166215
0.45500  4.894701  1.021907
0.46000  4.824965  0.907487
0.46500  4.762070  0.817467
0.47000  4.696790  0.743547
0.47500  4.639214  0.690211
0.48000  4.578722  0.638922
0.48500  4.526843  0.599076
0.49000  4.480949  0.562687
0.49500  4.436283  0.534475
0.50000  4.396138  0.506872
0.50500  4.359462  0.485420
0.51000  4.322701  0.462669
0.51500  4.291221  0.443331
0.52000  4.261703  0.426102
0.52500  4.233090  0.411922
0.53000  4.206791  0.398196
0.53500  4.184338  0.385567
0.54000  4.157218  0.374575
0.54500  4.134870  0.363870
0.55000  4.114182  0.354713
0.55500  4.092935  0.346522
0.56000  4.073217  0.335627
0.56500  4.058540  0.328796
0.57000  4.038926  0.320068
0.57500  4.022396  0.312819
0.58000  4.007270  0.305684
0.58500  3.993614  0.301414
0.59000  3.974983  0.295448
0.59500  3.962546  0.289784
0.60000  3.949822  0.284486
0.60500  3.938749  0.279343
0.61000  3.924602  0.274641
0.61500  3.914113  0.270684
0.62000  3.903641  0.264836
0.62500  3.893405  0.260994
0.63000  3.882636  0.257113
0.63500  3.875509  0.253168
0.64000  3.866230  0.250038
0.64500  3.855877  0.246456
0.65000  3.847071  0.241622
0.65500  3.839688  0.239668
0.66000  3.831549  0.234412
0.66500  3.824849  0.230061
0.67000  3.817186  0.229596
0.67500  3.811940  0.226652
0.68000  3.803788  0.222054
0.68500  3.798370  0.218751
0.69000  3.792423  0.216856
0.69500  3.785944  0.216300
0.70000  3.780140  0.210968
0.70500  3.774101  0.208281
0.71000  3.772131  0.205223
0.71500  3.762750  0.205142
0.72000  3.761179  0.203593
0.72500  3.757488  0.200420
0.73000  3.756361  0.201012
0.73500  3.752684  0.193720
0.74000  3.748137  0.189134
0.74500  3.747314  0.184813
0.75000  3.738150  0.178791
0.75500  3.734540  0.176732
0.76000  3.732007  0.172551
0.76500  3.724407  0.168438
0.77000  3.720574  0.166771
0.77500  3.718766  0.164171
0.78000  3.713574  0.161820
0.78500  3.707568  0.163938
0.79000  3.705446  0.157958
0.79500  3.702524  0.154851
0.80000  3.697846  0.148106
0.80500  3.693739  0.145179
0.81000  3.691008  0.144950
0.81500  3.684538  0.142311
0.82000  3.675913  0.136349
0.82500  3.669384  0.133890
0.83000  3.664140  0.133556
0.83500  3.660831  0.134502
0.84000  3.665444  0.144551
