; From SOPRA S.A. http://www.sopra-sa.com/indices.htm
; Filename    Symbol               Range (nm)     Description
; SICR-T20    Si                  263      826    Crystalline Silicon (Temp: 200 C)
; lambda/um       n         k
0.26380  1.965000  4.089000
0.26521  2.001000  4.149000
0.26663  2.036000  4.220000
0.26808  2.086000  4.302000
0.26953  2.133000  4.380000
0.27101  2.202000  4.463000
0.27249  2.257000  4.542000
0.27400  2.360000  4.633000
0.27552  2.442000  4.709000
0.27706  2.553000  4.814000
0.27862  2.664000  4.864000
0.28019  2.784000  4.939000
0.28178  2.926000  5.031000
0.28339  3.092000  5.079000
0.28502  3.251000  5.126000
0.28667  3.427000  5.162000
0.28834  3.640000  5.191000
0.29002  3.856000  5.198000
0.29173  4.090000  5.181000
0.29346  4.320000  5.086000
0.29520  4.538000  4.952000
0.29697  4.692000  4.805000
0.29876  4.834000  4.623000
0.30057  4.926000  4.457000
0.30240  5.008000  4.290000
0.30426  5.058000  4.148000
0.30614  5.095000  4.013000
0.30804  5.097000  3.876000
0.30996  5.116000  3.773000
0.31191  5.130000  3.675000
0.31389  5.137000  3.590000
0.31589  5.150000  3.498000
0.31791  5.133000  3.444000
0.31996  5.142000  3.369000
0.32204  5.166000  3.307000
0.32414  5.163000  3.261000
0.32628  5.190000  3.202000
0.32844  5.191000  3.145000
0.33063  5.200000  3.106000
0.33285  5.228000  3.072000
0.33510  5.237000  3.024000
0.33737  5.261000  2.996000
0.33969  5.287000  2.961000
0.34203  5.313000  2.927000
0.34440  5.357000  2.892000
0.34681  5.373000  2.874000
0.34925  5.428000  2.852000
0.35173  5.471000  2.832000
0.35424  5.526000  2.821000
0.35679  5.607000  2.799000
0.35938  5.698000  2.784000
0.36200  5.811000  2.759000
0.36466  5.957000  2.715000
0.36736  6.128000  2.644000
0.37011  6.288000  2.523000
0.37289  6.464000  2.339000
0.37571  6.593000  2.085000
0.37858  6.668000  1.792000
0.38149  6.649000  1.476000
0.38445  6.553000  1.238000
0.38745  6.432000  1.017000
0.39050  6.314000  0.827000
0.39360  6.163000  0.694000
0.39675  6.029000  0.606000
0.39995  5.901000  0.502000
0.40320  5.783000  0.433000
0.40651  5.677000  0.384000
0.40987  5.579000  0.328000
0.41328  5.479000  0.292000
0.41676  5.396000  0.256000
0.42029  5.314000  0.226000
0.42388  5.238000  0.209000
0.42754  5.162000  0.187000
0.43125  5.096000  0.166000
0.43504  5.036000  0.141000
0.43889  4.970000  0.137000
0.44280  4.916000  0.123000
0.44679  4.861000  0.110000
0.45086  4.810000  0.100000
0.45499  4.762000  0.089000
0.45920  4.713000  0.082000
0.46350  4.669000  0.073000
0.46787  4.626000  0.068000
0.47232  4.584000  0.061000
0.47687  4.547000  0.052000
0.48150  4.510000  0.043000
0.48622  4.473000  0.040000
0.49103  4.437000  0.040000
0.49594  4.405000  0.036000
0.50095  4.374000  0.031000
0.50606  4.343000  0.028000
0.51128  4.312000  0.025000
0.51660  4.285000  0.022000
0.52204  4.257000  0.018000
0.52760  4.232000  0.015000
0.53327  4.209000  0.013000
0.53907  4.185000  0.012000
0.54499  4.161000  0.013000
0.55105  4.139000  0.010000
0.55724  4.118000  0.010000
0.56357  4.098000  0.008800
0.57005  4.079000  0.008000
0.57668  4.060000  0.007000
0.58346  4.041000  0.004000
0.59041  4.023000  0.006000
0.59752  4.009800  0.004000
0.60481  3.991600  0.005000
0.61227  3.974000  0.003000
0.61993  3.957000  0.004000
0.62777  3.940800  0.003000
0.63582  3.925100  0.003000
0.64408  3.910100  0.004000
0.65255  3.899000  0.004000
0.66125  3.881900  0.003000
0.67019  3.868800  0.004000
0.67937  3.856200  0.002000
0.68881  3.849000  0.003000
0.69851  3.833100  0.003000
0.70849  3.822500  0.003000
0.71875  3.812000  0.003000
0.72932  3.803000  0.008000
0.74021  3.789000  0.003000
0.75143  3.783000  0.002100
0.76299  3.772000  0.002000
0.77491  3.762500  0.006900
0.78721  3.751000  0.004000
0.79990  3.741000  0.002000
0.81302  3.730000  0.001700
0.82657  3.721000  0.007500
