; From SOPRA S.A. http://www.sopra-sa.com/indices.htm
; Filename    Symbol               Range (nm)     Description
; SICR-T02    Si                  263      826    Crystalline Silicon (Temp: 20 C)
; lambda/um       n         k
0.26380  1.825000  4.175000
0.26521  1.854000  4.262000
0.26663  1.899000  4.341000
0.26808  1.954000  4.439000
0.26953  2.014000  4.543000
0.27101  2.099000  4.659000
0.27249  2.188000  4.735000
0.27400  2.293000  4.855000
0.27552  2.426000  4.941000
0.27706  2.574000  5.031000
0.27862  2.723000  5.111000
0.28019  2.877000  5.158000
0.28178  3.037000  5.233000
0.28339  3.232000  5.280000
0.28502  3.406000  5.332000
0.28667  3.668000  5.347000
0.28834  3.926000  5.353000
0.29002  4.205000  5.272000
0.29173  4.454000  5.142000
0.29346  4.659000  4.949000
0.29520  4.791000  4.740000
0.29697  4.885000  4.548000
0.29876  4.928000  4.364000
0.30057  4.985000  4.206000
0.30240  4.986000  4.067000
0.30426  5.009000  3.941000
0.30614  5.025000  3.827000
0.30804  5.024000  3.744000
0.30996  5.029000  3.645000
0.31191  5.034000  3.575000
0.31389  5.039000  3.492000
0.31589  5.035000  3.444000
0.31791  5.032000  3.392000
0.31996  5.051000  3.347000
0.32204  5.068000  3.286000
0.32414  5.066000  3.258000
0.32628  5.091000  3.213000
0.32844  5.120000  3.174000
0.33063  5.135000  3.146000
0.33285  5.159000  3.112000
0.33510  5.177000  3.083000
0.33737  5.218000  3.050000
0.33969  5.247000  3.032000
0.34203  5.277000  3.009000
0.34440  5.310000  3.005000
0.34681  5.363000  3.008000
0.34925  5.429000  3.018000
0.35173  5.487000  3.028000
0.35424  5.601000  3.056000
0.35679  5.752000  3.092000
0.35938  5.967000  3.105000
0.36200  6.251000  3.037000
0.36466  6.563000  2.869000
0.36736  6.821000  2.562000
0.37011  6.989000  2.163000
0.37289  7.004000  1.750000
0.37571  6.899000  1.404000
0.37858  6.735000  1.068000
0.38149  6.548000  0.871000
0.38445  6.369000  0.695000
0.38745  6.191000  0.587000
0.39050  6.041000  0.486000
0.39360  5.897000  0.440000
0.39675  5.764000  0.385000
0.39995  5.649000  0.326000
0.40320  5.543000  0.297000
0.40651  5.450000  0.259000
0.40987  5.356000  0.232000
0.41328  5.279000  0.203000
0.41676  5.197000  0.187000
0.42029  5.126000  0.171000
0.42388  5.056000  0.154000
0.42754  4.994000  0.142000
0.43125  4.933000  0.130000
0.43504  4.872000  0.121000
0.43889  4.825000  0.108000
0.44280  4.770000  0.101000
0.44679  4.722000  0.095000
0.45086  4.677000  0.086000
0.45499  4.631000  0.080000
0.45920  4.591000  0.069000
0.46350  4.549000  0.062600
0.46787  4.510000  0.056800
0.47232  4.471000  0.048200
0.47687  4.435000  0.042700
0.48150  4.402000  0.039300
0.48622  4.368000  0.036200
0.49103  4.337000  0.032900
0.49594  4.309000  0.028000
0.50095  4.281000  0.024000
0.50606  4.252000  0.022800
0.51128  4.224000  0.018900
0.51660  4.200000  0.014400
0.52204  4.177000  0.012200
0.52760  4.153000  0.010900
0.53327  4.131000  0.010000
0.53907  4.109000  0.008000
0.54499  4.089000  0.007500
0.55105  4.068000  0.006000
0.55724  4.049000  0.006400
0.56357  4.029000  0.005200
0.57005  4.012000  0.004700
0.57668  3.995000  0.004500
0.58346  3.977000  0.003800
0.59041  3.960000  0.003500
0.59752  3.944100  0.002600
0.60481  3.929100  0.002000
0.61227  3.914400  0.002400
0.61993  3.900000  0.001700
0.62777  3.886000  0.001300
0.63582  3.872300  0.000800
0.64408  3.858900  0.001300
0.65255  3.845000  0.001700
0.66125  3.833000  0.002100
0.67019  3.820500  0.001700
0.67937  3.808400  0.002400
0.68881  3.796000  0.002900
0.69851  3.785100  0.002600
0.70849  3.773900  0.002400
0.71875  3.763100  0.002400
0.72932  3.753000  0.002900
0.74021  3.742300  0.002600
0.75143  3.732400  0.004000
0.76299  3.722800  0.004400
0.77491  3.716000  0.001200
0.78721  3.704600  0.002900
0.79990  3.696000  0.004700
0.81302  3.687700  0.005000
0.82657  3.678000  0.004600
