; From SOPRA S.A. http://www.sopra-sa.com/indices.htm
; Filename    Symbol               Range (nm)     Description
; SICR-T45    Si                  263      826    Crystalline Silicon (Temp: 450 C)
; lambda/um       n         k
0.26380  2.057000  3.956000
0.26521  2.082000  4.008000
0.26663  2.118000  4.061000
0.26808  2.147000  4.120000
0.26953  2.186000  4.183000
0.27101  2.248000  4.243000
0.27249  2.298000  4.300000
0.27400  2.359000  4.389000
0.27552  2.425000  4.459000
0.27706  2.490000  4.516000
0.27862  2.603000  4.581000
0.28019  2.681000  4.644000
0.28178  2.800000  4.714000
0.28339  2.904000  4.772000
0.28502  3.010000  4.840000
0.28667  3.149000  4.872000
0.28834  3.301000  4.913000
0.29002  3.459000  4.949000
0.29173  3.637000  4.986000
0.29346  3.815000  4.974000
0.29520  4.016000  4.946000
0.29697  4.201000  4.879000
0.29876  4.378000  4.794000
0.30057  4.539000  4.674000
0.30240  4.692000  4.565000
0.30426  4.796000  4.407000
0.30614  4.888000  4.273000
0.30804  4.947000  4.137000
0.30996  5.006000  4.006000
0.31191  5.032000  3.893000
0.31389  5.058000  3.786000
0.31589  5.093000  3.683000
0.31791  5.097000  3.589000
0.31996  5.111000  3.507000
0.32204  5.131000  3.423000
0.32414  5.138000  3.355000
0.32628  5.144000  3.303000
0.32844  5.159000  3.234000
0.33063  5.188000  3.178000
0.33285  5.178000  3.132000
0.33510  5.196000  3.079000
0.33737  5.218000  3.025000
0.33969  5.233000  2.984000
0.34203  5.254000  2.940000
0.34440  5.278000  2.905000
0.34681  5.303000  2.867000
0.34925  5.329000  2.827000
0.35173  5.354000  2.793000
0.35424  5.403000  2.771000
0.35679  5.443000  2.736000
0.35938  5.499000  2.705000
0.36200  5.543000  2.680000
0.36466  5.609000  2.637000
0.36736  5.684000  2.594000
0.37011  5.776000  2.546000
0.37289  5.872000  2.475000
0.37571  5.993000  2.383000
0.37858  6.075000  2.270000
0.38149  6.181000  2.110000
0.38445  6.259000  1.927000
0.38745  6.298000  1.731000
0.39050  6.304000  1.524000
0.39360  6.266000  1.322000
0.39675  6.199000  1.160000
0.39995  6.112000  0.992000
0.40320  6.022000  0.857000
0.40651  5.917000  0.755000
0.40987  5.828000  0.654000
0.41328  5.732000  0.569000
0.41676  5.635000  0.512000
0.42029  5.553000  0.451000
0.42388  5.469000  0.405000
0.42754  5.386000  0.366000
0.43125  5.307000  0.325000
0.43504  5.240000  0.298000
0.43889  5.179000  0.265000
0.44280  5.110000  0.253000
0.44679  5.051000  0.222000
0.45086  4.988000  0.212000
0.45499  4.937000  0.188000
0.45920  4.884000  0.175000
0.46350  4.836000  0.156000
0.46787  4.789000  0.146000
0.47232  4.740000  0.137000
0.47687  4.699000  0.122000
0.48150  4.655000  0.113000
0.48622  4.615000  0.106000
0.49103  4.578000  0.094000
0.49594  4.543000  0.087000
0.50095  4.509000  0.081000
0.50606  4.473000  0.078000
0.51128  4.440000  0.069000
0.51660  4.410000  0.063000
0.52204  4.380000  0.057000
0.52760  4.349000  0.054000
0.53327  4.321000  0.049000
0.53907  4.296000  0.041000
0.54499  4.268000  0.039000
0.55105  4.243000  0.036000
0.55724  4.218000  0.033000
0.56357  4.197000  0.032000
0.57005  4.174000  0.029000
0.57668  4.153000  0.023000
0.58346  4.132000  0.024000
0.59041  4.113000  0.022000
0.59752  4.093300  0.021000
0.60481  4.075600  0.020000
0.61227  4.058300  0.017000
0.61993  4.041000  0.016000
0.62777  4.022000  0.015000
0.63582  4.008600  0.014000
0.64408  3.992800  0.013000
0.65255  3.977000  0.014000
0.66125  3.960000  0.014000
0.67019  3.947900  0.013000
0.67937  3.933700  0.012000
0.68881  3.920000  0.012000
0.69851  3.906400  0.011200
0.70849  3.893400  0.010000
0.71875  3.880800  0.010000
0.72932  3.870000  0.010000
0.74021  3.856700  0.005900
0.75143  3.845200  0.006000
0.76299  3.834100  0.004000
0.77491  3.823000  0.008000
0.78721  3.813200  0.004300
0.79990  3.803300  0.006400
0.81302  3.793800  0.004500
0.82657  3.784000  0.003000
