; From SOPRA S.A. http://www.sopra-sa.com/indices.htm
; Filename    Symbol               Range (nm)     Description
; SICR-T25    Si                  263      826    Crystalline Silicon (Temp: 250 C)
; lambda/um       n         k
0.26380  1.996000  4.062000
0.26521  2.033000  4.132000
0.26663  2.064000  4.198000
0.26808  2.105000  4.275000
0.26953  2.161000  4.349000
0.27101  2.222000  4.418000
0.27249  2.282000  4.501000
0.27400  2.366000  4.584000
0.27552  2.441000  4.675000
0.27706  2.547000  4.750000
0.27862  2.659000  4.835000
0.28019  2.772000  4.894000
0.28178  2.923000  4.981000
0.28339  3.057000  5.018000
0.28502  3.197000  5.074000
0.28667  3.392000  5.126000
0.28834  3.575000  5.146000
0.29002  3.779000  5.153000
0.29173  3.989000  5.150000
0.29346  4.223000  5.079000
0.29520  4.449000  4.974000
0.29697  4.638000  4.830000
0.29876  4.779000  4.687000
0.30057  4.888000  4.512000
0.30240  4.971000  4.350000
0.30426  5.027000  4.195000
0.30614  5.056000  4.047000
0.30804  5.103000  3.918000
0.30996  5.104000  3.801000
0.31191  5.129000  3.707000
0.31389  5.128000  3.619000
0.31589  5.140000  3.540000
0.31791  5.142000  3.450000
0.31996  5.148000  3.380000
0.32204  5.155000  3.314000
0.32414  5.193000  3.268000
0.32628  5.189000  3.204000
0.32844  5.190000  3.167000
0.33063  5.209000  3.116000
0.33285  5.218000  3.074000
0.33510  5.241000  3.045000
0.33737  5.255000  2.992000
0.33969  5.284000  2.954000
0.34203  5.313000  2.923000
0.34440  5.355000  2.900000
0.34681  5.370000  2.867000
0.34925  5.410000  2.843000
0.35173  5.454000  2.829000
0.35424  5.507000  2.788000
0.35679  5.582000  2.780000
0.35938  5.653000  2.771000
0.36200  5.755000  2.740000
0.36466  5.873000  2.703000
0.36736  6.030000  2.637000
0.37011  6.182000  2.533000
0.37289  6.362000  2.388000
0.37571  6.507000  2.176000
0.37858  6.590000  1.921000
0.38149  6.600000  1.636000
0.38445  6.556000  1.360000
0.38745  6.472000  1.125000
0.39050  6.347000  0.936000
0.39360  6.204000  0.795000
0.39675  6.083000  0.664000
0.39995  5.957000  0.568000
0.40320  5.833000  0.483000
0.40651  5.728000  0.421000
0.40987  5.622000  0.376000
0.41328  5.529000  0.320000
0.41676  5.437000  0.295000
0.42029  5.355000  0.251000
0.42388  5.276000  0.234000
0.42754  5.203000  0.203000
0.43125  5.132000  0.184000
0.43504  5.068000  0.166000
0.43889  5.008000  0.152000
0.44280  4.950000  0.132000
0.44679  4.891000  0.130000
0.45086  4.839000  0.116000
0.45499  4.793000  0.098000
0.45920  4.743000  0.094000
0.46350  4.699000  0.086000
0.46787  4.655000  0.078000
0.47232  4.614000  0.070300
0.47687  4.569000  0.068000
0.48150  4.535000  0.056000
0.48622  4.497000  0.050000
0.49103  4.462000  0.047000
0.49594  4.430000  0.040000
0.50095  4.396000  0.040000
0.50606  4.366000  0.035000
0.51128  4.335000  0.032000
0.51660  4.307000  0.027000
0.52204  4.278000  0.024000
0.52760  4.253000  0.021000
0.53327  4.226000  0.019000
0.53907  4.203000  0.014000
0.54499  4.180000  0.013000
0.55105  4.157000  0.014000
0.55724  4.136000  0.012000
0.56357  4.115000  0.010000
0.57005  4.094000  0.011000
0.57668  4.077000  0.008000
0.58346  4.057000  0.008000
0.59041  4.038000  0.007000
0.59752  4.024000  0.007000
0.60481  4.008600  0.006000
0.61227  3.988700  0.006000
0.61993  3.971000  0.005000
0.62777  3.955000  0.005000
0.63582  3.938000  0.004000
0.64408  3.924000  0.004000
0.65255  3.912000  0.004000
0.66125  3.893000  0.005000
0.67019  3.880000  0.005000
0.67937  3.867000  0.003000
0.68881  3.859000  0.004000
0.69851  3.846000  0.002000
0.70849  3.834000  0.002000
0.71875  3.820000  0.001000
0.72932  3.812000  0.001000
0.74021  3.799000  0.001000
0.75143  3.791000  0.001000
0.76299  3.779500  0.001000
0.77491  3.772000  0.001000
0.78721  3.761000  0.001000
0.79990  3.751000  0.000100
0.81302  3.741000  0.000000
0.82657  3.731000  0.000000
