; From SOPRA S.A. http://www.sopra-sa.com/indices.htm
; Filename    Symbol               Range (nm)     Description
; SICR-T10    Si                  263      826    Crystalline Silicon (Temp: 100 C)
; lambda/um       n         k
0.26380  1.918000  4.147000
0.26521  1.973000  4.226000
0.26663  2.017000  4.309000
0.26808  2.056000  4.395000
0.26953  2.111000  4.469000
0.27101  2.173000  4.573000
0.27249  2.266000  4.668000
0.27400  2.352000  4.768000
0.27552  2.449000  4.850000
0.27706  2.576000  4.942000
0.27862  2.704000  5.030000
0.28019  2.880000  5.092000
0.28178  3.022000  5.148000
0.28339  3.183000  5.215000
0.28502  3.359000  5.264000
0.28667  3.576000  5.294000
0.28834  3.796000  5.313000
0.29002  4.048000  5.289000
0.29173  4.306000  5.210000
0.29346  4.537000  5.070000
0.29520  4.719000  4.888000
0.29697  4.882000  4.704000
0.29876  4.975000  4.526000
0.30057  5.035000  4.352000
0.30240  5.070000  4.180000
0.30426  5.102000  4.040000
0.30614  5.121000  3.923000
0.30804  5.121000  3.793000
0.30996  5.125000  3.701000
0.31191  5.147000  3.621000
0.31389  5.140000  3.529000
0.31589  5.134000  3.456000
0.31791  5.125000  3.388000
0.31996  5.149000  3.328000
0.32204  5.162000  3.287000
0.32414  5.173000  3.232000
0.32628  5.188000  3.193000
0.32844  5.199000  3.148000
0.33063  5.208000  3.107000
0.33285  5.222000  3.076000
0.33510  5.240000  3.042000
0.33737  5.270000  3.011000
0.33969  5.304000  2.970000
0.34203  5.329000  2.961000
0.34440  5.368000  2.942000
0.34681  5.408000  2.913000
0.34925  5.457000  2.900000
0.35173  5.510000  2.890000
0.35424  5.603000  2.888000
0.35679  5.687000  2.888000
0.35938  5.835000  2.884000
0.36200  5.991000  2.867000
0.36466  6.184000  2.801000
0.36736  6.427000  2.661000
0.37011  6.637000  2.424000
0.37289  6.814000  2.107000
0.37571  6.852000  1.757000
0.37858  6.801000  1.415000
0.38149  6.674000  1.128000
0.38445  6.514000  0.905000
0.38745  6.360000  0.765000
0.39050  6.204000  0.625000
0.39360  6.046000  0.531000
0.39675  5.913000  0.459000
0.39995  5.788000  0.381000
0.40320  5.676000  0.320000
0.40651  5.576000  0.269000
0.40987  5.477000  0.254000
0.41328  5.383000  0.221000
0.41676  5.301000  0.198000
0.42029  5.225000  0.180000
0.42388  5.156000  0.162000
0.42754  5.087000  0.139000
0.43125  5.018000  0.127000
0.43504  4.957000  0.117000
0.43889  4.903000  0.103000
0.44280  4.845000  0.097000
0.44679  4.792000  0.090000
0.45086  4.746000  0.081000
0.45499  4.700000  0.070000
0.45920  4.654000  0.062000
0.46350  4.612000  0.056000
0.46787  4.571000  0.048000
0.47232  4.529000  0.046000
0.47687  4.492000  0.040000
0.48150  4.457000  0.035000
0.48622  4.422000  0.033000
0.49103  4.388000  0.028000
0.49594  4.359000  0.024000
0.50095  4.326000  0.023000
0.50606  4.296000  0.021000
0.51128  4.270000  0.015000
0.51660  4.241000  0.011000
0.52204  4.215000  0.010000
0.52760  4.193000  0.010000
0.53327  4.170000  0.009000
0.53907  4.146000  0.006300
0.54499  4.126000  0.007000
0.55105  4.103000  0.008000
0.55724  4.083000  0.007000
0.56357  4.064000  0.006000
0.57005  4.045000  0.005000
0.57668  4.027000  0.005000
0.58346  4.008000  0.004000
0.59041  3.992000  0.004000
0.59752  3.973000  0.003000
0.60481  3.953700  0.004000
0.61227  3.940000  0.002000
0.61993  3.928000  0.002000
0.62777  3.911000  0.002000
0.63582  3.896000  0.002000
0.64408  3.881000  0.002000
0.65255  3.866000  0.002000
0.66125  3.855000  0.002000
0.67019  3.844000  0.002000
0.67937  3.833000  0.002000
0.68881  3.822000  0.002000
0.69851  3.804900  0.002000
0.70849  3.798000  0.003000
0.71875  3.783800  0.003000
0.72932  3.773000  0.001000
0.74021  3.760000  0.001000
0.75143  3.753000  0.002000
0.76299  3.743000  0.001000
0.77491  3.733100  0.001000
0.78721  3.723000  0.005000
0.79990  3.712000  0.006000
0.81302  3.704000  0.002000
0.82657  3.695100  0.000000
