; From SOPRA S.A. http://www.sopra-sa.com/indices.htm
; Filename    Symbol               Range (nm)     Description
; SICR-T40    Si                  263      826    Crystalline Silicon (Temp: 400 C)
; lambda/um       n         k
0.26380  2.049000  3.997000
0.26521  2.068000  4.052000
0.26663  2.113000  4.089000
0.26808  2.147000  4.173000
0.26953  2.186000  4.251000
0.27101  2.251000  4.307000
0.27249  2.306000  4.367000
0.27400  2.371000  4.444000
0.27552  2.450000  4.515000
0.27706  2.530000  4.576000
0.27862  2.647000  4.663000
0.28019  2.756000  4.737000
0.28178  2.852000  4.793000
0.28339  2.963000  4.858000
0.28502  3.099000  4.896000
0.28667  3.241000  4.954000
0.28834  3.408000  4.987000
0.29002  3.570000  5.024000
0.29173  3.774000  5.026000
0.29346  3.960000  5.000000
0.29520  4.187000  4.968000
0.29697  4.362000  4.870000
0.29876  4.535000  4.754000
0.30057  4.700000  4.630000
0.30240  4.826000  4.476000
0.30426  4.913000  4.324000
0.30614  4.980000  4.175000
0.30804  5.025000  4.043000
0.30996  5.060000  3.912000
0.31191  5.085000  3.791000
0.31389  5.109000  3.709000
0.31589  5.118000  3.616000
0.31791  5.133000  3.527000
0.31996  5.135000  3.449000
0.32204  5.148000  3.368000
0.32414  5.162000  3.319000
0.32628  5.168000  3.253000
0.32844  5.189000  3.189000
0.33063  5.191000  3.146000
0.33285  5.211000  3.092000
0.33510  5.226000  3.052000
0.33737  5.239000  2.998000
0.33969  5.272000  2.962000
0.34203  5.277000  2.920000
0.34440  5.310000  2.879000
0.34681  5.330000  2.857000
0.34925  5.364000  2.817000
0.35173  5.409000  2.787000
0.35424  5.445000  2.759000
0.35679  5.499000  2.723000
0.35938  5.543000  2.704000
0.36200  5.606000  2.679000
0.36466  5.705000  2.644000
0.36736  5.782000  2.602000
0.37011  5.900000  2.526000
0.37289  6.019000  2.444000
0.37571  6.135000  2.318000
0.37858  6.257000  2.157000
0.38149  6.345000  1.969000
0.38445  6.398000  1.759000
0.38745  6.399000  1.535000
0.39050  6.345000  1.318000
0.39360  6.292000  1.112000
0.39675  6.183000  0.965000
0.39995  6.067000  0.815000
0.40320  5.970000  0.697000
0.40651  5.855000  0.626000
0.40987  5.761000  0.535000
0.41328  5.660000  0.468000
0.41676  5.564000  0.417000
0.42029  5.477000  0.365000
0.42388  5.395000  0.336000
0.42754  5.317000  0.301000
0.43125  5.245000  0.269000
0.43504  5.177000  0.239000
0.43889  5.106000  0.224000
0.44280  5.047000  0.208000
0.44679  4.987000  0.192000
0.45086  4.935000  0.167000
0.45499  4.882000  0.148000
0.45920  4.829000  0.139000
0.46350  4.782000  0.132000
0.46787  4.736000  0.113000
0.47232  4.692000  0.104000
0.47687  4.648000  0.103000
0.48150  4.608000  0.093000
0.48622  4.569000  0.086000
0.49103  4.535000  0.072000
0.49594  4.498000  0.072000
0.50095  4.466000  0.067000
0.50606  4.430000  0.061000
0.51128  4.399000  0.055000
0.51660  4.370000  0.047000
0.52204  4.342000  0.042000
0.52760  4.313000  0.042000
0.53327  4.285000  0.036000
0.53907  4.260000  0.032000
0.54499  4.233000  0.030000
0.55105  4.207000  0.029000
0.55724  4.189000  0.021000
0.56357  4.165000  0.021000
0.57005  4.143000  0.020000
0.57668  4.122000  0.020000
0.58346  4.103000  0.017000
0.59041  4.084000  0.016000
0.59752  4.068000  0.016000
0.60481  4.050600  0.013000
0.61227  4.032000  0.012000
0.61993  4.014000  0.012000
0.62777  3.995000  0.012000
0.63582  3.977000  0.010000
0.64408  3.963000  0.012000
0.65255  3.952000  0.011000
0.66125  3.934000  0.009000
0.67019  3.923000  0.009000
0.67937  3.909000  0.007000
0.68881  3.897000  0.007000
0.69851  3.882800  0.007000
0.70849  3.874100  0.006200
0.71875  3.862000  0.004200
0.72932  3.848000  0.002000
0.74021  3.837000  0.000600
0.75143  3.829000  0.001300
0.76299  3.819000  0.001300
0.77491  3.808000  0.002000
0.78721  3.798000  0.001000
0.79990  3.789000  0.000600
0.81302  3.780000  0.000800
0.82657  3.769000  0.002000
