; From SOPRA S.A. http://www.sopra-sa.com/indices.htm
; Filename    Symbol               Range (nm)     Description
; SICR-T15    Si                  263      826    Crystalline Silicon (Temp: 150 C)
; lambda/um       n         k
0.26380  1.948000  4.129000
0.26521  1.987000  4.195000
0.26663  2.024000  4.273000
0.26808  2.076000  4.359000
0.26953  2.130000  4.443000
0.27101  2.186000  4.524000
0.27249  2.262000  4.615000
0.27400  2.355000  4.694000
0.27552  2.463000  4.786000
0.27706  2.546000  4.872000
0.27862  2.672000  4.967000
0.28019  2.822000  5.009000
0.28178  2.977000  5.103000
0.28339  3.152000  5.151000
0.28502  3.316000  5.193000
0.28667  3.499000  5.239000
0.28834  3.712000  5.282000
0.29002  3.939000  5.256000
0.29173  4.189000  5.205000
0.29346  4.419000  5.092000
0.29520  4.625000  4.937000
0.29697  4.790000  4.778000
0.29876  4.919000  4.594000
0.30057  4.982000  4.407000
0.30240  5.042000  4.261000
0.30426  5.082000  4.108000
0.30614  5.106000  3.979000
0.30804  5.133000  3.852000
0.30996  5.127000  3.752000
0.31191  5.141000  3.662000
0.31389  5.139000  3.572000
0.31589  5.146000  3.489000
0.31791  5.138000  3.429000
0.31996  5.153000  3.354000
0.32204  5.170000  3.302000
0.32414  5.174000  3.257000
0.32628  5.184000  3.204000
0.32844  5.198000  3.156000
0.33063  5.218000  3.124000
0.33285  5.246000  3.081000
0.33510  5.255000  3.035000
0.33737  5.270000  3.005000
0.33969  5.298000  2.969000
0.34203  5.325000  2.950000
0.34440  5.361000  2.904000
0.34681  5.389000  2.893000
0.34925  5.437000  2.868000
0.35173  5.488000  2.854000
0.35424  5.563000  2.847000
0.35679  5.648000  2.833000
0.35938  5.751000  2.840000
0.36200  5.886000  2.806000
0.36466  6.055000  2.770000
0.36736  6.252000  2.664000
0.37011  6.451000  2.493000
0.37289  6.641000  2.259000
0.37571  6.741000  1.952000
0.37858  6.751000  1.639000
0.38149  6.671000  1.329000
0.38445  6.561000  1.078000
0.38745  6.415000  0.886000
0.39050  6.265000  0.743000
0.39360  6.132000  0.603000
0.39675  5.997000  0.508000
0.39995  5.859000  0.445000
0.40320  5.743000  0.376000
0.40651  5.631000  0.329000
0.40987  5.536000  0.293000
0.41328  5.439000  0.260000
0.41676  5.356000  0.230000
0.42029  5.275000  0.205000
0.42388  5.202000  0.178000
0.42754  5.134000  0.155000
0.43125  5.063000  0.147000
0.43504  5.003000  0.132000
0.43889  4.940000  0.123000
0.44280  4.884000  0.112000
0.44679  4.834000  0.098000
0.45086  4.784000  0.086000
0.45499  4.734000  0.081000
0.45920  4.688000  0.071000
0.46350  4.647000  0.065000
0.46787  4.603000  0.059000
0.47232  4.563000  0.052000
0.47687  4.524000  0.045000
0.48150  4.487000  0.041000
0.48622  4.452000  0.038000
0.49103  4.419000  0.035000
0.49594  4.385000  0.032000
0.50095  4.356000  0.025000
0.50606  4.323000  0.023000
0.51128  4.295000  0.018000
0.51660  4.268000  0.017000
0.52204  4.240000  0.015000
0.52760  4.216000  0.011000
0.53327  4.193000  0.011800
0.53907  4.170000  0.011000
0.54499  4.147000  0.008000
0.55105  4.126000  0.007000
0.55724  4.106000  0.007000
0.56357  4.086000  0.005000
0.57005  4.067000  0.004000
0.57668  4.046000  0.005000
0.58346  4.028000  0.005000
0.59041  4.010000  0.004000
0.59752  3.996700  0.003000
0.60481  3.976100  0.004000
0.61227  3.961000  0.003000
0.61993  3.946000  0.003000
0.62777  3.926000  0.003000
0.63582  3.910000  0.001000
0.64408  3.896000  0.001000
0.65255  3.884000  0.001000
0.66125  3.870000  0.001000
0.67019  3.855000  0.001000
0.67937  3.846000  0.001000
0.68881  3.836000  0.001000
0.69851  3.821000  0.001000
0.70849  3.812000  0.004000
0.71875  3.798300  0.004000
0.72932  3.788000  0.006000
0.74021  3.778000  0.001000
0.75143  3.770000  0.005000
0.76299  3.758000  0.001000
0.77491  3.749000  0.001000
0.78721  3.738000  0.000000
0.79990  3.726000  0.000800
0.81302  3.718000  0.000000
0.82657  3.709000  0.000000
