; From SOPRA S.A. http://www.sopra-sa.com/indices.htm
; Filename    Symbol               Range (nm)     Description
; SICR-T30    Si                  263      826    Crystalline Silicon (Temp: 300 C)
; lambda/um       n         k
0.26380  1.998000  4.044000
0.26521  2.023000  4.113000
0.26663  2.065000  4.162000
0.26808  2.091000  4.236000
0.26953  2.164000  4.309000
0.27101  2.202000  4.396000
0.27249  2.276000  4.452000
0.27400  2.354000  4.543000
0.27552  2.441000  4.632000
0.27706  2.526000  4.692000
0.27862  2.650000  4.784000
0.28019  2.764000  4.849000
0.28178  2.872000  4.908000
0.28339  3.011000  4.985000
0.28502  3.163000  5.031000
0.28667  3.339000  5.065000
0.28834  3.517000  5.113000
0.29002  3.712000  5.123000
0.29173  3.925000  5.113000
0.29346  4.153000  5.074000
0.29520  4.344000  4.973000
0.29697  4.540000  4.851000
0.29876  4.704000  4.723000
0.30057  4.830000  4.555000
0.30240  4.937000  4.393000
0.30426  4.999000  4.234000
0.30614  5.033000  4.089000
0.30804  5.061000  3.975000
0.30996  5.097000  3.837000
0.31191  5.107000  3.745000
0.31389  5.126000  3.634000
0.31589  5.137000  3.554000
0.31791  5.135000  3.471000
0.31996  5.156000  3.413000
0.32204  5.156000  3.343000
0.32414  5.159000  3.277000
0.32628  5.172000  3.221000
0.32844  5.197000  3.174000
0.33063  5.202000  3.116000
0.33285  5.211000  3.074000
0.33510  5.241000  3.037000
0.33737  5.256000  3.004000
0.33969  5.279000  2.968000
0.34203  5.301000  2.924000
0.34440  5.330000  2.894000
0.34681  5.364000  2.865000
0.34925  5.396000  2.838000
0.35173  5.440000  2.806000
0.35424  5.493000  2.780000
0.35679  5.550000  2.756000
0.35938  5.614000  2.750000
0.36200  5.696000  2.719000
0.36466  5.808000  2.683000
0.36736  5.939000  2.626000
0.37011  6.086000  2.544000
0.37289  6.240000  2.414000
0.37571  6.383000  2.239000
0.37858  6.494000  2.002000
0.38149  6.538000  1.739000
0.38445  6.516000  1.485000
0.38745  6.461000  1.256000
0.39050  6.363000  1.043000
0.39360  6.239000  0.882000
0.39675  6.114000  0.755000
0.39995  5.990000  0.641000
0.40320  5.870000  0.540000
0.40651  5.766000  0.477000
0.40987  5.661000  0.413000
0.41328  5.559000  0.366000
0.41676  5.470000  0.319000
0.42029  5.385000  0.291000
0.42388  5.309000  0.257000
0.42754  5.233000  0.236000
0.43125  5.162000  0.212000
0.43504  5.097000  0.187000
0.43889  5.034000  0.171000
0.44280  4.975000  0.151000
0.44679  4.918000  0.140000
0.45086  4.866000  0.135000
0.45499  4.814000  0.118000
0.45920  4.766000  0.106000
0.46350  4.721000  0.094000
0.46787  4.677000  0.089000
0.47232  4.634000  0.083000
0.47687  4.590000  0.074000
0.48150  4.555000  0.067000
0.48622  4.516000  0.062000
0.49103  4.480000  0.056000
0.49594  4.447000  0.049000
0.50095  4.415000  0.044000
0.50606  4.383000  0.042000
0.51128  4.352000  0.035000
0.51660  4.325000  0.032000
0.52204  4.294000  0.030000
0.52760  4.266000  0.026000
0.53327  4.240000  0.024000
0.53907  4.216000  0.018000
0.54499  4.194000  0.019000
0.55105  4.170000  0.016000
0.55724  4.149000  0.016000
0.56357  4.129000  0.014000
0.57005  4.108000  0.015000
0.57668  4.089000  0.010000
0.58346  4.070000  0.010000
0.59041  4.050000  0.010000
0.59752  4.034300  0.011000
0.60481  4.016500  0.008000
0.61227  3.999300  0.006000
0.61993  3.982000  0.006000
0.62777  3.966400  0.005000
0.63582  3.950700  0.006000
0.64408  3.935600  0.005000
0.65255  3.923000  0.006000
0.66125  3.907000  0.005000
0.67019  3.893500  0.003000
0.67937  3.880600  0.004000
0.68881  3.870000  0.003000
0.69851  3.856300  0.001000
0.70849  3.844900  0.002000
0.71875  3.834100  0.005000
0.72932  3.825600  0.005000
0.74021  3.814100  0.002000
0.75143  3.804800  0.001000
0.76299  3.793000  0.000000
0.77491  3.784000  0.007000
0.78721  3.773000  0.003000
0.79990  3.764000  0.001000
0.81302  3.753000  0.001000
0.82657  3.743000  0.000000
