; From SOPRA S.A. http://www.sopra-sa.com/indices.htm
; Filename    Symbol               Range (nm)     Description
; SICR-T35    Si                  263      826    Crystalline Silicon (Temp: 350 C)
; lambda/um       n         k
0.26380  2.034000  4.016000
0.26521  2.077000  4.075000
0.26663  2.111000  4.143000
0.26808  2.161000  4.200000
0.26953  2.190000  4.279000
0.27101  2.250000  4.357000
0.27249  2.310000  4.430000
0.27400  2.381000  4.495000
0.27552  2.458000  4.571000
0.27706  2.550000  4.657000
0.27862  2.649000  4.702000
0.28019  2.755000  4.798000
0.28178  2.883000  4.859000
0.28339  3.026000  4.916000
0.28502  3.163000  4.972000
0.28667  3.304000  5.001000
0.28834  3.490000  5.056000
0.29002  3.682000  5.078000
0.29173  3.876000  5.064000
0.29346  4.098000  5.032000
0.29520  4.319000  4.952000
0.29697  4.481000  4.863000
0.29876  4.656000  4.705000
0.30057  4.785000  4.572000
0.30240  4.882000  4.420000
0.30426  4.969000  4.268000
0.30614  5.035000  4.120000
0.30804  5.071000  3.988000
0.30996  5.088000  3.879000
0.31191  5.105000  3.765000
0.31389  5.138000  3.652000
0.31589  5.138000  3.570000
0.31791  5.146000  3.478000
0.31996  5.146000  3.414000
0.32204  5.148000  3.346000
0.32414  5.175000  3.279000
0.32628  5.177000  3.222000
0.32844  5.186000  3.163000
0.33063  5.207000  3.124000
0.33285  5.213000  3.074000
0.33510  5.235000  3.035000
0.33737  5.248000  2.991000
0.33969  5.272000  2.952000
0.34203  5.301000  2.913000
0.34440  5.321000  2.878000
0.34681  5.358000  2.850000
0.34925  5.384000  2.808000
0.35173  5.418000  2.806000
0.35424  5.465000  2.759000
0.35679  5.518000  2.747000
0.35938  5.598000  2.716000
0.36200  5.665000  2.683000
0.36466  5.761000  2.655000
0.36736  5.880000  2.603000
0.37011  6.008000  2.530000
0.37289  6.138000  2.417000
0.37571  6.264000  2.291000
0.37858  6.393000  2.071000
0.38149  6.468000  1.855000
0.38445  6.474000  1.606000
0.38745  6.433000  1.367000
0.39050  6.357000  1.157000
0.39360  6.262000  0.966000
0.39675  6.153000  0.826000
0.39995  6.028000  0.703000
0.40320  5.916000  0.600000
0.40651  5.801000  0.516000
0.40987  5.700000  0.447000
0.41328  5.601000  0.399000
0.41676  5.513000  0.354000
0.42029  5.430000  0.315000
0.42388  5.342000  0.285000
0.42754  5.267000  0.256000
0.43125  5.196000  0.238000
0.43504  5.130000  0.207000
0.43889  5.060000  0.193000
0.44280  5.002000  0.177000
0.44679  4.950000  0.146000
0.45086  4.894000  0.139000
0.45499  4.843000  0.129000
0.45920  4.792000  0.117000
0.46350  4.745000  0.108000
0.46787  4.699000  0.104000
0.47232  4.656000  0.090000
0.47687  4.615000  0.086000
0.48150  4.577000  0.074000
0.48622  4.533000  0.071000
0.49103  4.501000  0.063000
0.49594  4.468000  0.056000
0.50095  4.434000  0.051000
0.50606  4.400000  0.050000
0.51128  4.370000  0.043000
0.51660  4.342000  0.036000
0.52204  4.312000  0.035000
0.52760  4.284000  0.031000
0.53327  4.258000  0.030000
0.53907  4.233000  0.026000
0.54499  4.208000  0.025000
0.55105  4.186000  0.021000
0.55724  4.164000  0.020000
0.56357  4.142000  0.018000
0.57005  4.121000  0.018000
0.57668  4.103000  0.013000
0.58346  4.082000  0.014000
0.59041  4.064000  0.012000
0.59752  4.048000  0.013000
0.60481  4.029700  0.011000
0.61227  4.013000  0.010000
0.61993  3.994000  0.008000
0.62777  3.979000  0.007000
0.63582  3.962000  0.007000
0.64408  3.947000  0.007000
0.65255  3.935000  0.008000
0.66125  3.917000  0.007000
0.67019  3.902700  0.006000
0.67937  3.891800  0.006000
0.68881  3.879000  0.006000
0.69851  3.867000  0.006000
0.70849  3.857000  0.005000
0.71875  3.848000  0.004000
0.72932  3.836000  0.002000
0.74021  3.824000  0.001300
0.75143  3.816000  0.001000
0.76299  3.805000  0.001500
0.77491  3.796000  0.002000
0.78721  3.788000  0.001500
0.79990  3.778000  0.001500
0.81302  3.770000  0.002100
0.82657  3.757000  0.002000
