; From SOPRA S.A. http://www.sopra-sa.com/indices.htm
; Filename    Symbol               Range (nm)     Description
; SINGAS10    In0.1Ga0.9As        240      840    Indium Gallium Arsenide (strained, 10% In)
; lambda/um       n         k
0.24000  1.695632  3.626973
0.24500  1.995954  3.832311
0.25000  2.489192  4.047272
0.25500  3.018086  3.989868
0.26000  3.389706  3.736133
0.26500  3.692100  3.441614
0.27000  3.828479  3.133120
0.27500  3.956829  2.894699
0.28000  3.989487  2.619697
0.28500  3.994273  2.379107
0.29000  3.908876  2.197803
0.29500  3.837061  2.077826
0.30000  3.757468  1.997205
0.30500  3.691318  1.941163
0.31000  3.635449  1.903483
0.31500  3.589409  1.882282
0.32000  3.557714  1.871777
0.32500  3.530272  1.869552
0.33000  3.520146  1.873763
0.33500  3.504931  1.878836
0.34000  3.507941  1.891499
0.34500  3.509362  1.904422
0.35000  3.517833  1.922107
0.35500  3.532010  1.943499
0.36000  3.560456  1.965862
0.36500  3.588537  1.985293
0.37000  3.622905  2.012209
0.37500  3.663644  2.036050
0.38000  3.725727  2.061652
0.38500  3.787611  2.091816
0.39000  3.882211  2.118727
0.39500  3.983807  2.123520
0.40000  4.116117  2.097612
0.40500  4.208991  2.031589
0.41000  4.272949  1.964266
0.41500  4.325205  1.923321
0.42000  4.375002  1.896895
0.42500  4.452845  1.904221
0.43000  4.616919  1.908062
0.43500  4.827320  1.784758
0.44000  4.952266  1.552415
0.44500  4.971296  1.317762
0.45000  4.936451  1.126328
0.45500  4.866441  0.981826
0.46000  4.792338  0.877641
0.46500  4.724356  0.795790
0.47000  4.658986  0.725933
0.47500  4.595098  0.670417
0.48000  4.541252  0.622135
0.48500  4.492733  0.583224
0.49000  4.443550  0.550566
0.49500  4.399448  0.520756
0.50000  4.359300  0.493835
0.50500  4.323921  0.470679
0.51000  4.289316  0.451575
0.51500  4.256333  0.430910
0.52000  4.225421  0.414910
0.52500  4.196762  0.400014
0.53000  4.169644  0.385443
0.53500  4.144136  0.372660
0.54000  4.119969  0.362212
0.54500  4.095240  0.348365
0.55000  4.076280  0.340152
0.55500  4.054678  0.330917
0.56000  4.033546  0.320333
0.56500  4.014924  0.313205
0.57000  3.994105  0.302160
0.57500  3.981147  0.295595
0.58000  3.962478  0.289818
0.58500  3.948099  0.281988
0.59000  3.937019  0.276069
0.59500  3.920896  0.268207
0.60000  3.908165  0.263136
0.60500  3.900762  0.260680
0.61000  3.883653  0.251358
0.61500  3.873935  0.248947
0.62000  3.864592  0.243522
0.62500  3.852652  0.237074
0.63000  3.841299  0.233280
0.63500  3.831546  0.229161
0.64000  3.817062  0.224291
0.64500  3.809455  0.219421
0.65000  3.802970  0.217340
0.65500  3.791143  0.213065
0.66000  3.786988  0.209642
0.66500  3.782547  0.207248
0.67000  3.775245  0.205101
0.67500  3.769044  0.201388
0.68000  3.756377  0.194904
0.68500  3.747789  0.190407
0.69000  3.750387  0.193919
0.69500  3.746783  0.190385
0.70000  3.738356  0.185813
0.70500  3.724130  0.179999
0.71000  3.724620  0.179208
0.71500  3.723089  0.174859
0.72000  3.712151  0.170182
0.72500  3.712152  0.166741
0.73000  3.705201  0.164106
0.73500  3.704202  0.154392
0.74000  3.699872  0.148970
0.74500  3.695720  0.149421
0.75000  3.691721  0.146948
0.75500  3.683006  0.144879
0.76000  3.677100  0.144259
0.76500  3.674824  0.139321
0.77000  3.671772  0.142977
0.77500  3.666895  0.149445
0.78000  3.665506  0.147097
0.78500  3.660799  0.148381
0.79000  3.659802  0.141846
0.79500  3.653001  0.148840
0.80000  3.653005  0.140246
0.80500  3.650596  0.144671
0.81000  3.647604  0.143934
0.81500  3.642828  0.146690
0.82000  3.638914  0.136197
0.82500  3.640052  0.119939
0.83000  3.636391  0.136369
0.83500  3.636250  0.126745
0.84000  3.634122  0.163102
