; From SOPRA S.A. http://www.sopra-sa.com/indices.htm
; Filename    Symbol               Range (nm)     Description
; SINGAS24    In0.24Ga0.76As      240      840    Indium Gallium Arsenide (strained, 24% In)
; lambda/um       n         k
0.24000  1.812200  3.457100
0.24500  1.983000  3.588100
0.25000  2.336300  3.792400
0.25500  2.776700  3.795600
0.26000  3.200800  3.651700
0.26500  3.499800  3.406100
0.27000  3.689400  3.118700
0.27500  3.810000  2.864900
0.28000  3.869700  2.628400
0.28500  3.850200  2.386900
0.29000  3.797100  2.209100
0.29500  3.722600  2.082100
0.30000  3.655600  1.998500
0.30500  3.603400  1.933900
0.31000  3.545100  1.886500
0.31500  3.507100  1.852400
0.32000  3.468400  1.839100
0.32500  3.442000  1.826100
0.33000  3.426600  1.823000
0.33500  3.411700  1.821000
0.34000  3.405700  1.823700
0.34500  3.408400  1.840100
0.35000  3.408800  1.846400
0.35500  3.413500  1.866400
0.36000  3.431500  1.886600
0.36500  3.455100  1.904000
0.37000  3.480100  1.919500
0.37500  3.515900  1.941700
0.38000  3.556600  1.961700
0.38500  3.595600  1.978300
0.39000  3.659400  1.996200
0.39500  3.728100  2.011500
0.40000  3.823400  2.006500
0.40500  3.902000  1.974200
0.41000  3.956300  1.928000
0.41500  3.995300  1.908500
0.42000  4.013600  1.883800
0.42500  4.041800  1.906600
0.43000  4.138600  1.941300
0.43500  4.270300  1.939300
0.44000  4.411100  1.900000
0.44500  4.556500  1.827200
0.45000  4.703500  1.685900
0.45500  4.792300  1.509500
0.46000  4.812600  1.334500
0.46500  4.791500  1.165000
0.47000  4.744700  1.028600
0.47500  4.686600  0.924100
0.48000  4.628600  0.836400
0.48500  4.570000  0.762500
0.49000  4.516700  0.709500
0.49500  4.468600  0.661700
0.50000  4.416500  0.620800
0.50500  4.372700  0.586500
0.51000  4.335900  0.555900
0.51500  4.298800  0.529800
0.52000  4.261600  0.502800
0.52500  4.226500  0.481900
0.53000  4.196000  0.465600
0.53500  4.167300  0.448100
0.54000  4.143000  0.435500
0.54500  4.114000  0.417200
0.55000  4.089600  0.407000
0.55500  4.067300  0.394500
0.56000  4.044400  0.381500
0.56500  4.023600  0.369300
0.57000  3.998400  0.357700
0.57500  3.981600  0.349300
0.58000  3.961400  0.340700
0.58500  3.944300  0.334600
0.59000  3.929400  0.330200
0.59500  3.914200  0.315900
0.60000  3.898300  0.308800
0.60500  3.889000  0.306700
0.61000  3.870900  0.299500
0.61500  3.863400  0.294800
0.62000  3.851400  0.289400
0.62500  3.839300  0.282100
0.63000  3.821400  0.277100
0.63500  3.809300  0.272300
0.64000  3.793100  0.266300
0.64500  3.784400  0.262100
0.65000  3.777000  0.261200
0.65500  3.764100  0.253700
0.66000  3.758300  0.251400
0.66500  3.759300  0.249100
0.67000  3.750200  0.247800
0.67500  3.741200  0.243900
0.68000  3.727400  0.236700
0.68500  3.714900  0.234700
0.69000  3.721900  0.237400
0.69500  3.718500  0.233300
0.70000  3.706500  0.229100
0.70500  3.684400  0.225200
0.71000  3.684200  0.229600
0.71500  3.687500  0.222500
0.72000  3.674500  0.210500
0.72500  3.667900  0.211300
0.73000  3.666900  0.199700
0.73500  3.648000  0.192600
0.74000  3.656800  0.201000
0.74500  3.649300  0.193900
0.75000  3.648100  0.193800
0.75500  3.642200  0.185300
0.76000  3.639200  0.184200
0.76500  3.635500  0.176800
0.77000  3.634000  0.174300
0.77500  3.627200  0.176100
0.78000  3.621800  0.171100
0.78500  3.621600  0.167700
0.79000  3.624400  0.172700
0.79500  3.608300  0.167300
0.80000  3.614200  0.171600
0.80500  3.611300  0.158700
0.81000  3.622500  0.157800
0.81500  3.604700  0.169700
0.82000  3.609100  0.166500
0.82500  3.613000  0.156000
0.83000  3.609600  0.156900
0.83500  3.610300  0.156900
0.84000  3.599100  0.168900
