; From SOPRA S.A. http://www.sopra-sa.com/indices.htm
; Filename    Symbol               Range (nm)     Description
; STSG229     Si0.78Ge0.22        275      619    Silicon Germanium alloy (strained, 22% Ge)
; lambda/um       n         k
0.27552  2.510000  4.666000
0.27706  2.616000  4.741000
0.27862  2.719000  4.817000
0.28019  2.835000  4.876000
0.28178  3.035000  4.842000
0.28339  3.235000  4.813000
0.28502  3.434000  4.792000
0.28667  3.634000  4.776000
0.28834  3.832000  4.765000
0.29002  4.025000  4.756000
0.29173  4.101000  4.624000
0.29346  4.181000  4.491000
0.29520  4.266000  4.358000
0.29697  4.356000  4.224000
0.29876  4.451000  4.091000
0.30057  4.521000  3.974000
0.30240  4.534000  3.887000
0.30426  4.549000  3.799000
0.30614  4.565000  3.709000
0.30804  4.583000  3.617000
0.30996  4.603000  3.524000
0.31191  4.609000  3.470000
0.31389  4.616000  3.416000
0.31589  4.624000  3.361000
0.31791  4.633000  3.304000
0.31996  4.642000  3.247000
0.32204  4.652000  3.210000
0.32414  4.664000  3.173000
0.32628  4.675000  3.135000
0.32844  4.687000  3.096000
0.33063  4.701000  3.061000
0.33285  4.719000  3.033000
0.33510  4.738000  3.006000
0.33737  4.757000  2.978000
0.33969  4.776000  2.950000
0.34203  4.801000  2.930000
0.34440  4.828000  2.911000
0.34681  4.854000  2.892000
0.34925  4.882000  2.872000
0.35173  4.921000  2.854000
0.35424  4.966000  2.836000
0.35679  5.012000  2.818000
0.35938  5.058000  2.801000
0.36200  5.125000  2.768000
0.36466  5.199000  2.732000
0.36736  5.273000  2.696000
0.37011  5.349000  2.659000
0.37289  5.431000  2.584000
0.37571  5.515000  2.509000
0.37858  5.601000  2.436000
0.38149  5.668000  2.345000
0.38445  5.721000  2.239000
0.38745  5.776000  2.132000
0.39050  5.834000  2.021000
0.39360  5.894000  1.890000
0.39675  5.958000  1.759000
0.39995  6.026000  1.628000
0.40320  6.001000  1.447000
0.40651  5.981000  1.260000
0.40987  5.966000  1.068000
0.41328  5.870000  0.950100
0.41676  5.771000  0.828000
0.42029  5.671000  0.705900
0.42388  5.577000  0.641700
0.42754  5.480000  0.574200
0.43125  5.390000  0.515200
0.43504  5.314000  0.476300
0.43889  5.237000  0.435700
0.44280  5.170000  0.403900
0.44679  5.106000  0.374800
0.45086  5.044000  0.347300
0.45499  4.992000  0.328800
0.45920  4.938000  0.309600
0.46350  4.889000  0.286600
0.46787  4.839000  0.262100
0.47232  4.797000  0.241900
0.47687  4.762000  0.225700
0.48150  4.723000  0.209800
0.48622  4.679000  0.194800
0.49103  4.635000  0.180800
0.49594  4.595000  0.171300
0.50095  4.555000  0.161800
0.50606  4.521000  0.153100
0.51128  4.487000  0.144200
0.51660  4.456000  0.135000
0.52204  4.425000  0.125700
0.52760  4.396000  0.116100
0.53327  4.366000  0.111100
0.53907  4.333000  0.109400
0.54499  4.305000  0.102400
0.55105  4.278000  0.094810
0.55724  4.253000  0.089650
0.56357  4.229000  0.084470
0.57005  4.204000  0.079230
0.57668  4.180000  0.074370
0.58346  4.156000  0.071460
0.59041  4.133000  0.070320
0.59752  4.113000  0.067120
0.60481  4.091000  0.064420
0.61227  4.069000  0.061740
0.61993  4.050000  0.058550
