; From SOPRA S.A. http://www.sopra-sa.com/indices.htm
; Filename    Symbol               Range (nm)     Description
; STSG0       Si                  275      619    Silicon Germanium alloy (strained, 0% Ge)
; lambda/um       n         k
0.27552  2.456000  5.085000
0.27706  2.604000  5.162000
0.27862  2.773000  5.234000
0.28019  2.945000  5.294000
0.28178  3.122000  5.345000
0.28339  3.320000  5.389000
0.28502  3.541000  5.424000
0.28667  3.801000  5.438000
0.28834  4.098000  5.390000
0.29002  4.375000  5.261000
0.29173  4.612000  5.065000
0.29346  4.778000  4.851000
0.29520  4.889000  4.635000
0.29697  4.951000  4.438000
0.29876  4.988000  4.266000
0.30057  5.009000  4.111000
0.30240  5.020000  3.977000
0.30426  5.021000  3.862000
0.30614  5.019000  3.758000
0.30804  5.016000  3.665000
0.30996  5.010000  3.587000
0.31191  5.009000  3.506000
0.31389  5.010000  3.438000
0.31589  5.011000  3.396000
0.31791  5.016000  3.345000
0.31996  5.023000  3.300000
0.32204  5.035000  3.258000
0.32414  5.049000  3.219000
0.32628  5.065000  3.182000
0.32844  5.083000  3.147000
0.33063  5.106000  3.115000
0.33285  5.130000  3.084000
0.33510  5.156000  3.058000
0.33737  5.186000  3.034000
0.33969  5.218000  3.014000
0.34203  5.254000  2.998000
0.34440  5.297000  2.987000
0.34681  5.349000  2.983000
0.34925  5.414000  2.987000
0.35173  5.499000  2.997000
0.35424  5.615000  3.015000
0.35679  5.776000  3.025000
0.35938  5.998000  3.001000
0.36200  6.261000  2.902000
0.36466  6.522000  2.704000
0.36736  6.722000  2.376000
0.37011  6.812000  2.013000
0.37289  6.804000  1.640000
0.37571  6.706000  1.316000
0.37858  6.549000  1.066000
0.38149  6.382000  0.878600
0.38445  6.214000  0.736500
0.38745  6.062000  0.630000
0.39050  5.920000  0.546600
0.39360  5.793000  0.480700
0.39675  5.676000  0.425700
0.39995  5.570000  0.387000
0.40320  5.473000  0.347800
0.40651  5.383000  0.320700
0.40987  5.298000  0.295800
0.41328  5.221000  0.268800
0.41676  5.150000  0.252200
0.42029  5.083000  0.235800
0.42388  5.020000  0.215000
0.42754  4.960000  0.202700
0.43125  4.904000  0.191600
0.43504  4.851000  0.185000
0.43889  4.801000  0.173700
0.44280  4.752000  0.162800
0.44679  4.708000  0.149000
0.45086  4.664000  0.140700
0.45499  4.623000  0.131500
0.45920  4.582000  0.130000
0.46350  4.545000  0.131800
0.46787  4.508000  0.126700
0.47232  4.473000  0.120000
0.47687  4.442000  0.090020
0.48150  4.410000  0.091180
0.48622  4.378000  0.080930
0.49103  4.349000  0.077470
0.49594  4.319000  0.073000
0.50095  4.292000  0.071110
0.50606  4.266000  0.069100
0.51128  4.240000  0.062750
0.51660  4.215000  0.059940
0.52204  4.191000  0.055200
0.52760  4.168000  0.047990
0.53327  4.144000  0.044520
0.53907  4.123000  0.047970
0.54499  4.102000  0.044000
0.55105  4.081000  0.037860
0.55724  4.061000  0.036560
0.56357  4.042000  0.032010
0.57005  4.022000  0.032930
0.57668  4.004000  0.028480
0.58346  3.986000  0.029290
0.59041  3.969000  0.029960
0.59752  3.953000  0.026490
0.60481  3.937000  0.025000
0.61227  3.921000  0.024240
0.61993  3.906000  0.022000
