; From SOPRA S.A. http://www.sopra-sa.com/indices.htm
; Filename    Symbol               Range (nm)     Description
; STSG169     Si0.83Ge0.17        275      619    Silicon Germanium alloy (strained, 17% Ge)
; lambda/um       n         k
0.27552  2.518000  4.803000
0.27706  2.655000  4.880000
0.27862  2.793000  4.956000
0.28019  2.952000  5.014000
0.28178  3.116000  5.067000
0.28339  3.330000  5.090000
0.28502  3.544000  5.105000
0.28667  3.785000  5.048000
0.28834  4.016000  4.986000
0.29002  4.192000  4.846000
0.29173  4.364000  4.706000
0.29346  4.477000  4.544000
0.29520  4.587000  4.385000
0.29697  4.642000  4.236000
0.29876  4.695000  4.090000
0.30057  4.710000  3.969000
0.30240  4.727000  3.850000
0.30426  4.740000  3.755000
0.30614  4.753000  3.661000
0.30804  4.756000  3.576000
0.30996  4.760000  3.493000
0.31191  4.764000  3.433000
0.31389  4.769000  3.374000
0.31589  4.779000  3.326000
0.31791  4.788000  3.276000
0.31996  4.790000  3.226000
0.32204  4.794000  3.176000
0.32414  4.808000  3.135000
0.32628  4.823000  3.095000
0.32844  4.837000  3.061000
0.33063  4.851000  3.027000
0.33285  4.867000  2.995000
0.33510  4.884000  2.962000
0.33737  4.905000  2.932000
0.33969  4.926000  2.901000
0.34203  4.951000  2.874000
0.34440  4.977000  2.849000
0.34681  5.008000  2.829000
0.34925  5.040000  2.810000
0.35173  5.078000  2.795000
0.35424  5.120000  2.780000
0.35679  5.182000  2.759000
0.35938  5.247000  2.738000
0.36200  5.325000  2.708000
0.36466  5.405000  2.678000
0.36736  5.506000  2.633000
0.37011  5.608000  2.584000
0.37289  5.711000  2.499000
0.37571  5.814000  2.411000
0.37858  5.902000  2.279000
0.38149  5.989000  2.145000
0.38445  6.047000  1.990000
0.38745  6.105000  1.832000
0.39050  6.139000  1.650000
0.39360  6.170000  1.464000
0.39675  6.124000  1.259000
0.39995  6.077000  1.055000
0.40320  5.971000  0.909200
0.40651  5.864000  0.762300
0.40987  5.753000  0.670700
0.41328  5.640000  0.578900
0.41676  5.541000  0.530500
0.42029  5.442000  0.481000
0.42388  5.364000  0.443200
0.42754  5.286000  0.404500
0.43125  5.218000  0.373300
0.43504  5.148000  0.341700
0.43889  5.088000  0.318900
0.44280  5.027000  0.295400
0.44679  4.971000  0.272300
0.45086  4.915000  0.249300
0.45499  4.866000  0.236900
0.45920  4.817000  0.224000
0.46350  4.775000  0.211300
0.46787  4.731000  0.198100
0.47232  4.686000  0.184200
0.47687  4.639000  0.169900
0.48150  4.604000  0.157200
0.48622  4.568000  0.144900
0.49103  4.535000  0.142100
0.49594  4.500000  0.139200
0.50095  4.464000  0.136200
0.50606  4.428000  0.133000
0.51128  4.399000  0.127300
0.51660  4.369000  0.121300
0.52204  4.338000  0.115200
0.52760  4.307000  0.108900
0.53327  4.284000  0.105200
0.53907  4.260000  0.101500
0.54499  4.235000  0.097570
0.55105  4.209000  0.093530
0.55724  4.189000  0.087200
0.56357  4.168000  0.080660
0.57005  4.146000  0.073910
0.57668  4.124000  0.066960
0.58346  4.103000  0.063570
0.59041  4.081000  0.060060
0.59752  4.058000  0.056420
0.60481  4.035000  0.052680
0.61227  4.019000  0.051020
0.61993  4.001000  0.049300
