; From SOPRA S.A. http://www.sopra-sa.com/indices.htm
; Filename    Symbol               Range (nm)     Description
; STSG064     Si0.94Ge0.06        275      619    Silicon Germanium alloy (strained, 6% Ge)
; lambda/um       n         k
0.27552  2.508000  4.953000
0.27706  2.662000  5.022000
0.27862  2.812000  5.092000
0.28019  2.990000  5.152000
0.28178  3.165000  5.213000
0.28339  3.367000  5.238000
0.28502  3.568000  5.266000
0.28667  3.823000  5.225000
0.28834  4.076000  5.190000
0.29002  4.289000  5.039000
0.29173  4.507000  4.895000
0.29346  4.622000  4.727000
0.29520  4.742000  4.560000
0.29697  4.795000  4.389000
0.29876  4.853000  4.216000
0.30057  4.877000  4.086000
0.30240  4.904000  3.954000
0.30426  4.908000  3.853000
0.30614  4.914000  3.750000
0.30804  4.920000  3.665000
0.30996  4.927000  3.579000
0.31191  4.923000  3.513000
0.31389  4.920000  3.446000
0.31589  4.927000  3.392000
0.31791  4.935000  3.337000
0.31996  4.947000  3.288000
0.32204  4.960000  3.238000
0.32414  4.972000  3.195000
0.32628  4.986000  3.152000
0.32844  4.997000  3.115000
0.33063  5.009000  3.077000
0.33285  5.036000  3.041000
0.33510  5.063000  3.005000
0.33737  5.085000  2.981000
0.33969  5.107000  2.958000
0.34203  5.137000  2.938000
0.34440  5.168000  2.918000
0.34681  5.201000  2.903000
0.34925  5.236000  2.888000
0.35173  5.294000  2.882000
0.35424  5.353000  2.876000
0.35679  5.438000  2.872000
0.35938  5.526000  2.868000
0.36200  5.679000  2.842000
0.36466  5.832000  2.818000
0.36736  6.018000  2.717000
0.37011  6.204000  2.619000
0.37289  6.376000  2.382000
0.37571  6.554000  2.150000
0.37858  6.567000  1.836000
0.38149  6.593000  1.517000
0.38445  6.473000  1.269000
0.38745  6.357000  1.009000
0.39050  6.203000  0.873600
0.39360  6.045000  0.729700
0.39675  5.913000  0.646400
0.39995  5.778000  0.558700
0.40320  5.679000  0.514700
0.40651  5.578000  0.468600
0.40987  5.490000  0.432200
0.41328  5.400000  0.394100
0.41676  5.326000  0.356900
0.42029  5.249000  0.318100
0.42388  5.179000  0.283800
0.42754  5.107000  0.248200
0.43125  5.029000  0.232800
0.43504  4.950000  0.216900
0.43889  4.897000  0.212100
0.44280  4.842000  0.207100
0.44679  4.798000  0.196700
0.45086  4.753000  0.186100
0.45499  4.710000  0.177500
0.45920  4.666000  0.168700
0.46350  4.628000  0.167300
0.46787  4.590000  0.165700
0.47232  4.552000  0.154600
0.47687  4.513000  0.143200
0.48150  4.480000  0.136600
0.48622  4.446000  0.129900
0.49103  4.413000  0.128200
0.49594  4.380000  0.126500
0.50095  4.354000  0.122200
0.50606  4.327000  0.117800
0.51128  4.303000  0.116000
0.51660  4.279000  0.114100
0.52204  4.260000  0.116100
0.52760  4.242000  0.117800
0.53327  4.223000  0.095230
0.53907  4.205000  0.072150
0.54499  4.178000  0.068070
0.55105  4.150000  0.063870
0.55724  4.126000  0.061020
0.56357  4.101000  0.058090
0.57005  4.079000  0.057200
0.57668  4.056000  0.056290
0.58346  4.036000  0.055060
0.59041  4.016000  0.053780
0.59752  3.998000  0.052310
0.60481  3.979000  0.050780
0.61227  3.962000  0.049260
0.61993  3.944000  0.047680
