; From SOPRA S.A. http://www.sopra-sa.com/indices.htm
; Filename    Symbol               Range (nm)     Description
; STSG123     Si0.88Ge0.12        275      619    Silicon Germanium alloy (strained, 12% Ge)
; lambda/um       n         k
0.27552  2.529000  4.830000
0.27706  2.684000  4.896000
0.27862  2.837000  4.963000
0.28019  2.987000  5.033000
0.28178  3.133000  5.104000
0.28339  3.336000  5.079000
0.28502  3.559000  5.030000
0.28667  3.782000  4.988000
0.28834  4.006000  4.954000
0.29002  4.229000  4.927000
0.29173  4.337000  4.782000
0.29346  4.435000  4.621000
0.29520  4.539000  4.459000
0.29697  4.650000  4.297000
0.29876  4.740000  4.150000
0.30057  4.755000  4.040000
0.30240  4.771000  3.929000
0.30426  4.790000  3.815000
0.30614  4.810000  3.699000
0.30804  4.815000  3.625000
0.30996  4.818000  3.555000
0.31191  4.822000  3.483000
0.31389  4.826000  3.410000
0.31589  4.835000  3.355000
0.31791  4.845000  3.306000
0.31996  4.856000  3.256000
0.32204  4.868000  3.205000
0.32414  4.882000  3.166000
0.32628  4.896000  3.130000
0.32844  4.911000  3.093000
0.33063  4.927000  3.056000
0.33285  4.946000  3.021000
0.33510  4.966000  2.986000
0.33737  4.987000  2.950000
0.33969  5.010000  2.921000
0.34203  5.037000  2.899000
0.34440  5.064000  2.877000
0.34681  5.093000  2.854000
0.34925  5.136000  2.837000
0.35173  5.180000  2.819000
0.35424  5.225000  2.802000
0.35679  5.298000  2.784000
0.35938  5.378000  2.767000
0.36200  5.459000  2.750000
0.36466  5.575000  2.703000
0.36736  5.704000  2.646000
0.37011  5.835000  2.591000
0.37289  5.959000  2.467000
0.37571  6.086000  2.322000
0.37858  6.217000  2.180000
0.38149  6.277000  1.958000
0.38445  6.339000  1.728000
0.38745  6.380000  1.500000
0.39050  6.299000  1.285000
0.39360  6.222000  1.060000
0.39675  6.114000  0.887000
0.39995  5.980000  0.751400
0.40320  5.844000  0.613500
0.40651  5.726000  0.551600
0.40987  5.605000  0.486200
0.41328  5.505000  0.440200
0.41676  5.417000  0.404200
0.42029  5.332000  0.369900
0.42388  5.260000  0.340900
0.42754  5.187000  0.312300
0.43125  5.124000  0.296100
0.43504  5.058000  0.279200
0.43889  5.003000  0.260300
0.44280  4.946000  0.240600
0.44679  4.895000  0.225500
0.45086  4.843000  0.210500
0.45499  4.801000  0.196200
0.45920  4.758000  0.181500
0.46350  4.719000  0.174800
0.46787  4.678000  0.167700
0.47232  4.631000  0.157000
0.47687  4.586000  0.147700
0.48150  4.547000  0.141900
0.48622  4.509000  0.135700
0.49103  4.473000  0.129100
0.49594  4.443000  0.122500
0.50095  4.415000  0.115300
0.50606  4.391000  0.106800
0.51128  4.358000  0.101300
0.51660  4.321000  0.097170
0.52204  4.286000  0.092740
0.52760  4.256000  0.089980
0.53327  4.228000  0.087960
0.53907  4.198000  0.085880
0.54499  4.171000  0.083840
0.55105  4.157000  0.082280
0.55724  4.142000  0.080670
0.56357  4.127000  0.079020
0.57005  4.103000  0.072080
0.57668  4.083000  0.066620
0.58346  4.062000  0.063410
0.59041  4.040000  0.061210
0.59752  4.024000  0.058060
0.60481  4.006000  0.055220
0.61227  3.988000  0.052210
0.61993  3.972000  0.049440
