; From SOPRA S.A. http://www.sopra-sa.com/indices.htm
; Filename    Symbol               Range (nm)     Description
; TI          Ti                  206     1239    Titanium
; lambda/um       n         k
0.20664  1.160000  1.210000
0.20838  1.167500  1.216250
0.21014  1.180000  1.220000
0.21194  1.195000  1.221250
0.21377  1.210000  1.220000
0.21563  1.221250  1.215000
0.21752  1.230000  1.210000
0.21944  1.236250  1.210625
0.22140  1.240000  1.210000
0.22340  1.244375  1.202500
0.22543  1.240000  1.190000
0.22750  1.199375  1.165000
0.22960  1.180000  1.150000
0.23175  1.266875  1.178125
0.23393  1.350000  1.210000
0.23616  1.316250  1.208750
0.23843  1.260000  1.200000
0.24075  1.250000  1.198750
0.24311  1.250000  1.200000
0.24552  1.245625  1.204375
0.24797  1.240000  1.210000
0.25048  1.230000  1.215000
0.25303  1.220000  1.220000
0.25564  1.215625  1.224375
0.25830  1.210000  1.230000
0.26102  1.195000  1.238750
0.26380  1.180000  1.250000
0.26663  1.174375  1.264375
0.26953  1.170000  1.280000
0.27249  1.160625  1.295625
0.27552  1.150000  1.310000
0.27862  1.140625  1.319375
0.28178  1.130000  1.330000
0.28502  1.116875  1.346875
0.28834  1.100000  1.370000
0.29173  1.073750  1.401875
0.29520  1.050000  1.440000
0.29876  1.041875  1.484375
0.30240  1.040000  1.530000
0.30614  1.038125  1.568125
0.30996  1.040000  1.610000
0.31389  1.046875  1.668750
0.31791  1.060000  1.730000
0.32204  1.082500  1.783125
0.32628  1.110000  1.830000
0.33063  1.138750  1.867500
0.33510  1.170000  1.900000
0.33969  1.205000  1.931250
0.34440  1.240000  1.960000
0.34925  1.270000  1.985625
0.35424  1.300000  2.010000
0.35938  1.334375  2.036250
0.36466  1.370000  2.060000
0.37011  1.405625  2.076250
0.37571  1.440000  2.090000
0.38149  1.471250  2.105000
0.38745  1.500000  2.120000
0.39360  1.526250  2.135625
0.39995  1.550000  2.150000
0.40651  1.570625  2.159375
0.41328  1.590000  2.170000
0.42029  1.609375  2.188750
0.42754  1.630000  2.210000
0.43504  1.655625  2.230000
0.44280  1.680000  2.250000
0.45086  1.695625  2.269375
0.45920  1.710000  2.290000
0.46787  1.730000  2.314375
0.47687  1.750000  2.340000
0.48622  1.765625  2.363125
0.49594  1.780000  2.390000
0.50606  1.793750  2.427500
0.51660  1.810000  2.470000
0.52760  1.833125  2.513125
0.53907  1.860000  2.560000
0.55105  1.887500  2.614375
0.56357  1.920000  2.670000
0.57668  1.962500  2.720000
0.59041  2.010000  2.770000
0.60481  2.058750  2.824375
0.61993  2.110000  2.880000
0.63582  2.162500  2.934375
0.65255  2.220000  2.990000
0.67019  2.285625  3.049375
0.68881  2.360000  3.110000
0.70849  2.446250  3.173125
0.72932  2.540000  3.230000
0.75143  2.636250  3.271250
0.77491  2.740000  3.300000
0.79990  2.860625  3.316875
0.82657  2.980000  3.320000
0.85507  3.083125  3.303125
0.88561  3.170000  3.280000
0.91841  3.232500  3.259375
0.95373  3.280000  3.250000
0.99188  3.314375  3.266875
1.03321  3.350000  3.300000
1.07813  3.405000  3.345625
1.12714  3.470000  3.400000
1.18081  3.542500  3.459375
1.23985  3.620000  3.520000
