; From SOPRA S.A. http://www.sopra-sa.com/indices.htm
; Filename    Symbol               Range (nm)     Description
; V           V                   206     1279    Vanadium
; lambda/um       n         k
0.20664  1.140000  2.180000
0.20838  1.141875  2.191875
0.21014  1.140000  2.200000
0.21194  1.135625  2.205625
0.21377  1.130000  2.210000
0.21563  1.124375  2.215625
0.21752  1.120000  2.220000
0.21944  1.118750  2.221250
0.22140  1.120000  2.220000
0.22340  1.124375  2.215000
0.22543  1.130000  2.210000
0.22750  1.134375  2.209375
0.22960  1.140000  2.210000
0.23175  1.150000  2.210000
0.23393  1.160000  2.210000
0.23616  1.164375  2.211875
0.23843  1.170000  2.210000
0.24075  1.183750  2.194375
0.24311  1.200000  2.180000
0.24552  1.215000  2.182500
0.24797  1.230000  2.190000
0.25048  1.244375  2.195625
0.25303  1.260000  2.200000
0.25564  1.281875  2.195000
0.25830  1.300000  2.200000
0.26102  1.301250  2.241250
0.26380  1.300000  2.290000
0.26663  1.308750  2.321250
0.26953  1.320000  2.350000
0.27249  1.328125  2.383750
0.27552  1.340000  2.420000
0.27862  1.365000  2.460000
0.28178  1.390000  2.500000
0.28502  1.400000  2.535000
0.28834  1.410000  2.570000
0.29173  1.433125  2.609375
0.29520  1.460000  2.650000
0.29876  1.485000  2.690000
0.30240  1.510000  2.730000
0.30614  1.533125  2.770000
0.30996  1.560000  2.810000
0.31389  1.597500  2.850000
0.31791  1.640000  2.890000
0.32204  1.683125  2.929375
0.32628  1.730000  2.970000
0.33063  1.783125  3.015000
0.33510  1.840000  3.060000
0.33969  1.900000  3.100625
0.34440  1.960000  3.140000
0.34925  2.015625  3.182500
0.35424  2.070000  3.220000
0.35938  2.124375  3.241875
0.36466  2.180000  3.260000
0.37011  2.239375  3.286250
0.37571  2.300000  3.310000
0.38149  2.359375  3.320000
0.38745  2.420000  3.330000
0.39360  2.482500  3.356250
0.39995  2.550000  3.380000
0.40651  2.630000  3.380625
0.41328  2.710000  3.380000
0.42029  2.773125  3.401250
0.42754  2.840000  3.420000
0.43504  2.933125  3.413750
0.44280  3.030000  3.400000
0.45086  3.111250  3.391875
0.45920  3.190000  3.380000
0.46787  3.274375  3.358125
0.47687  3.360000  3.330000
0.48622  3.449375  3.298750
0.49594  3.530000  3.260000
0.50606  3.587500  3.206875
0.51660  3.630000  3.150000
0.52760  3.661250  3.097500
0.53907  3.680000  3.050000
0.55105  3.685000  3.011250
0.56357  3.680000  2.980000
0.57668  3.671250  2.956250
0.59041  3.650000  2.940000
0.60481  3.601250  2.928750
0.61993  3.550000  2.930000
0.63582  3.523125  2.955625
0.65255  3.500000  2.990000
0.67019  3.463125  3.021875
0.68881  3.430000  3.050000
0.70849  3.415000  3.065000
0.72932  3.410000  3.080000
0.75143  3.410625  3.109375
0.77491  3.420000  3.140000
0.79990  3.448125  3.161250
0.82657  3.470000  3.180000
0.85507  3.456250  3.196875
0.88561  3.430000  3.220000
0.91841  3.414375  3.253125
0.95373  3.380000  3.310000
0.99188  3.296875  3.410000
1.03321  3.190000  3.540000
1.07813  3.074375  3.684375
1.12714  2.950000  3.870000
1.18081  2.813125  4.133750
1.23985  2.690000  4.430000
1.30511  2.611250  4.713125
1.37761  2.560000  5.020000
1.45865  2.529375  5.365625
1.54981  2.520000  5.770000
1.65314  2.533750  6.261875
1.77122  2.560000  6.830000
1.90746  2.586250  7.480000
2.06642  2.620000  8.190000
2.25428  2.663750  8.945000
2.47970  2.720000  9.730000
