; From SOPRA S.A. http://www.sopra-sa.com/indices.htm
; Filename    Symbol               Range (nm)     Description
; VSI2-A      VSi2                253    24797    Vanadium Silicide (perpendicular to c axis)
; lambda/um       n         k
0.25303  2.502000  3.265000
0.25564  2.488438  3.267938
0.25830  2.490000  3.282000
0.26102  2.503313  3.300313
0.26380  2.525000  3.316000
0.26663  2.551375  3.314000
0.26953  2.580000  3.312000
0.27249  2.603687  3.328750
0.27552  2.633000  3.346000
0.27862  2.678750  3.349250
0.28178  2.733000  3.346000
0.28502  2.795875  3.336562
0.28834  2.854000  3.328000
0.29173  2.885313  3.332438
0.29520  2.916000  3.335000
0.29876  2.971062  3.322375
0.30240  3.032000  3.302000
0.30614  3.088750  3.275625
0.30996  3.141000  3.247000
0.31389  3.181438  3.222938
0.31791  3.221000  3.196000
0.32204  3.273438  3.157937
0.32628  3.323000  3.118000
0.33063  3.354687  3.083250
0.33510  3.380000  3.052000
0.33969  3.405625  3.027375
0.34440  3.431000  3.002000
0.34925  3.457688  2.968188
0.35424  3.486000  2.930000
0.35938  3.518750  2.888938
0.36466  3.550000  2.845000
0.37011  3.575000  2.796375
0.37571  3.593000  2.750000
0.38149  3.600187  2.714937
0.38745  3.601000  2.683000
0.39360  3.599437  2.646188
0.39995  3.593000  2.613000
0.40651  3.577875  2.589813
0.41328  3.562000  2.575000
0.42029  3.553188  2.570563
0.42754  3.548000  2.572000
0.43504  3.545625  2.575000
0.44280  3.546000  2.581000
0.45086  3.547750  2.590062
0.45920  3.554000  2.602000
0.46787  3.568750  2.618062
0.47687  3.588000  2.634000
0.48622  3.609750  2.644750
0.49594  3.632000  2.654000
0.50606  3.651188  2.662938
0.51660  3.670000  2.674000
0.52760  3.688937  2.690500
0.53907  3.711000  2.711000
0.55105  3.740062  2.735625
0.56357  3.774000  2.763000
0.57668  3.809000  2.792250
0.59041  3.854000  2.822000
0.60481  3.918625  2.854625
0.61993  3.997000  2.878000
0.63582  4.093375  2.879062
0.65255  4.187000  2.863000
0.67019  4.255500  2.825250
0.68881  4.308000  2.782000
0.70849  4.342625  2.749750
0.72932  4.370000  2.723000
0.75143  4.402812  2.700688
0.77491  4.433000  2.686000
0.79990  4.454438  2.681437
0.82657  4.474000  2.688000
0.85507  4.483375  2.712125
0.88561  4.522000  2.740000
0.91841  4.646687  2.768750
0.95373  4.797000  2.772000
0.99188  4.942250  2.719687
1.03321  5.050000  2.620000
1.07813  5.066750  2.452250
1.12714  5.025000  2.273000
1.18081  4.930750  2.131625
1.23985  4.810000  2.029000
1.30511  4.704875  1.985687
1.37761  4.573000  1.992000
1.45865  4.378000  2.046813
1.54981  4.144000  2.145000
1.65314  3.881813  2.254000
1.77122  3.595000  2.455000
1.90746  3.270000  2.838938
2.06642  2.969000  3.344000
2.25428  2.749500  3.908813
2.47970  2.612000  4.623000
2.75523  2.561062  5.566375
3.09963  2.642000  6.707000
3.54243  2.884000  7.947875
4.13284  3.340000  9.564000
4.95941  4.001250  11.840310
6.19926  5.082000  14.650000
8.26568  6.740749  17.969190
12.39852  9.136001  21.774000
24.79704  20.772000  37.831000
